-98.0,-575.0,-182.0,-306.0,1332.0,-167.0,359.0,137.0
-105.0,-469.0,-182.0,-265.0,1207.0,-247.0,217.0,165.0
-111.0,-541.0,-197.0,-249.0,1227.0,-189.0,142.0,-84.0
-131.0,-556.0,-219.0,-137.0,1183.0,-122.0,181.0,-114.0
-146.0,-488.0,-226.0,170.0,1114.0,-86.0,90.0,47.0
-125.0,-358.0,-204.0,356.0,888.0,-79.0,4.0,-14.0
-103.0,-161.0,-198.0,-23.0,363.0,-73.0,-142.0,-290.0
-109.0,-69.0,-183.0,-346.0,24.0,-17.0,-135.0,-338.0
-94.0,-139.0,-133.0,-446.0,7.0,-43.0,-51.0,-267.0
-106.0,-137.0,-135.0,-635.0,106.0,-38.0,-61.0,-246.0
-113.0,-72.0,-105.0,-546.0,367.0,-81.0,-169.0,-234.0
-69.0,-118.0,-90.0,-503.0,682.0,-167.0,-216.0,-197.0
-63.0,16.0,-90.0,-397.0,701.0,-45.0,72.0,-254.0
-78.0,101.0,-96.0,-167.0,811.0,66.0,41.0,-276.0
-42.0,62.0,-79.0,-141.0,896.0,86.0,-162.0,-141.0
-39.0,132.0,-50.0,-130.0,896.0,13.0,-262.0,-93.0
-25.0,83.0,-51.0,4.0,920.0,-52.0,-223.0,-117.0
-35.0,-59.0,-11.0,113.0,876.0,4.0,-140.0,-102.0
-42.0,-236.0,-10.0,207.0,929.0,-2.0,-135.0,43.0
4.0,-318.0,-23.0,207.0,831.0,-98.0,16.0,157.0
-1.0,-218.0,18.0,199.0,469.0,-175.0,29.0,176.0
33.0,-44.0,34.0,172.0,258.0,-157.0,58.0,104.0
32.0,20.0,34.0,50.0,553.0,-57.0,16.0,111.0
8.0,83.0,34.0,18.0,1118.0,8.0,15.0,49.0
39.0,105.0,50.0,-122.0,1266.0,25.0,41.0,-200.0
29.0,87.0,53.0,-241.0,1253.0,26.0,36.0,-350.0
28.0,124.0,53.0,-182.0,1378.0,45.0,144.0,-358.0
21.0,103.0,65.0,-75.0,1188.0,76.0,245.0,-189.0
15.0,121.0,63.0,41.0,953.0,119.0,246.0,-65.0
40.0,135.0,63.0,203.0,393.0,176.0,120.0,-37.0
51.0,128.0,93.0,280.0,101.0,254.0,116.0,41.0
30.0,142.0,93.0,280.0,493.0,237.0,144.0,108.0
49.0,149.0,89.0,351.0,751.0,213.0,172.0,102.0
54.0,134.0,83.0,258.0,1006.0,219.0,61.0,85.0
21.0,152.0,65.0,142.0,737.0,204.0,-18.0,21.0
71.0,193.0,107.0,124.0,469.0,194.0,-36.0,-67.0
74.0,180.0,100.0,34.0,351.0,148.0,16.0,-68.0
53.0,158.0,89.0,-1.0,267.0,143.0,209.0,14.0
43.0,156.0,74.0,-10.0,570.0,119.0,243.0,87.0
9.0,121.0,69.0,-74.0,686.0,93.0,250.0,74.0
18.0,60.0,71.0,-152.0,627.0,54.0,268.0,148.0
25.0,5.0,41.0,-161.0,635.0,13.0,297.0,243.0
-6.0,-42.0,40.0,-96.0,748.0,10.0,213.0,308.0
-3.0,-52.0,41.0,26.0,737.0,64.0,107.0,279.0
17.0,-56.0,40.0,113.0,320.0,90.0,337.0,258.0
29.0,5.0,30.0,81.0,114.0,57.0,481.0,339.0
20.0,95.0,50.0,77.0,42.0,27.0,210.0,224.0
4.0,294.0,57.0,240.0,-229.0,-20.0,329.0,94.0
-4.0,418.0,45.0,329.0,-315.0,-38.0,587.0,60.0
-31.0,411.0,33.0,290.0,-227.0,-35.0,543.0,130.0
-20.0,389.0,4.0,112.0,-242.0,-19.0,620.0,273.0
-3.0,182.0,16.0,21.0,-556.0,-5.0,759.0,329.0
19.0,-12.0,60.0,158.0,-576.0,-56.0,671.0,291.0
23.0,-60.0,30.0,185.0,-478.0,-112.0,506.0,196.0
-7.0,-81.0,-19.0,112.0,-437.0,-95.0,403.0,135.0
3.0,-156.0,-2.0,-41.0,-356.0,-18.0,162.0,59.0
12.0,-158.0,-7.0,-91.0,-549.0,92.0,134.0,-88.0
4.0,-20.0,-3.0,-102.0,-928.0,127.0,-16.0,-340.0
-16.0,44.0,-2.0,-87.0,-1120.0,81.0,-194.0,-454.0
-1.0,-25.0,-15.0,-57.0,-1129.0,-3.0,-277.0,-419.0
-8.0,-7.0,-4.0,-87.0,-1072.0,-61.0,-433.0,-382.0
-17.0,-55.0,-26.0,-88.0,-742.0,-56.0,-294.0,-327.0
-11.0,-94.0,-29.0,-83.0,-818.0,-18.0,1.0,-183.0
-37.0,-60.0,-25.0,-88.0,-942.0,-14.0,113.0,37.0
-14.0,-83.0,-52.0,-102.0,-812.0,-27.0,-24.0,-38.0
-17.0,-49.0,-42.0,-74.0,-637.0,-34.0,-145.0,-83.0
-14.0,-31.0,-17.0,-61.0,-356.0,-21.0,-122.0,-194.0
1.0,4.0,-3.0,-38.0,-421.0,7.0,-83.0,-305.0
8.0,-16.0,8.0,-12.0,-404.0,-59.0,-206.0,-356.0
9.0,-21.0,-12.0,-82.0,-201.0,-133.0,-408.0,-482.0
-11.0,-7.0,-12.0,-166.0,-68.0,-247.0,-485.0,-370.0
-11.0,-24.0,-6.0,-133.0,0.0,-358.0,-353.0,-317.0
-21.0,17.0,-11.0,-76.0,3.0,-409.0,-200.0,-132.0
-26.0,44.0,23.0,-93.0,61.0,-351.0,-211.0,53.0
-11.0,72.0,-3.0,-76.0,216.0,-226.0,-243.0,23.0
1.0,-107.0,-26.0,-57.0,281.0,-91.0,-233.0,-46.0
5.0,-259.0,10.0,47.0,112.0,19.0,-130.0,-121.0
3.0,-129.0,14.0,195.0,19.0,-130.0,-69.0,-18.0
4.0,-139.0,1.0,137.0,69.0,-161.0,-48.0,127.0
14.0,-113.0,-18.0,65.0,242.0,-44.0,36.0,332.0
-2.0,-27.0,-6.0,116.0,314.0,124.0,183.0,420.0
-11.0,43.0,-17.0,406.0,219.0,326.0,203.0,252.0
-20.0,17.0,-37.0,467.0,88.0,229.0,1.0,154.0
-20.0,-36.0,-25.0,-33.0,60.0,-29.0,-269.0,213.0
-6.0,65.0,-6.0,-300.0,194.0,-320.0,-716.0,253.0
-32.0,122.0,-5.0,-448.0,243.0,-448.0,-1291.0,247.0
-37.0,239.0,3.0,-486.0,346.0,-352.0,-1943.0,276.0
-20.0,338.0,-16.0,-409.0,471.0,-161.0,-2139.0,349.0
-4.0,266.0,-26.0,-433.0,521.0,-53.0,-1897.0,369.0
15.0,-18.0,11.0,-266.0,469.0,-12.0,-1572.0,267.0
50.0,-358.0,5.0,-26.0,346.0,150.0,-1383.0,182.0
37.0,-391.0,-2.0,3.0,364.0,126.0,-1206.0,281.0
6.0,-318.0,4.0,-22.0,843.0,53.0,-898.0,401.0
-1.0,-347.0,8.0,24.0,1287.0,-44.0,-784.0,538.0
-16.0,-280.0,-2.0,22.0,1254.0,-219.0,-781.0,606.0
-19.0,-209.0,-16.0,80.0,1213.0,-120.0,-876.0,670.0
4.0,8.0,-1.0,67.0,1091.0,149.0,-716.0,731.0
-20.0,282.0,-29.0,69.0,967.0,250.0,-640.0,621.0
-77.0,319.0,-21.0,110.0,896.0,180.0,-743.0,597.0
-36.0,328.0,-9.0,133.0,811.0,203.0,-615.0,541.0
-31.0,187.0,-25.0,116.0,792.0,138.0,-442.0,409.0
-30.0,44.0,-25.0,69.0,569.0,22.0,-102.0,242.0
7.0,53.0,-14.0,54.0,296.0,-63.0,136.0,163.0
-20.0,44.0,-2.0,45.0,213.0,-55.0,303.0,361.0
-17.0,135.0,-26.0,49.0,438.0,51.0,329.0,666.0
-9.0,305.0,-11.0,10.0,462.0,114.0,375.0,747.0
4.0,347.0,2.0,28.0,275.0,193.0,380.0,591.0
15.0,176.0,-26.0,10.0,76.0,180.0,396.0,296.0
-12.0,-21.0,-10.0,7.0,-90.0,107.0,459.0,4.0
-10.0,-94.0,0.0,-6.0,14.0,41.0,504.0,-201.0
-3.0,-194.0,-22.0,-20.0,-71.0,57.0,600.0,-419.0
-13.0,-352.0,-16.0,23.0,-334.0,77.0,613.0,-496.0
-3.0,-509.0,-5.0,-6.0,-351.0,150.0,571.0,-419.0
-12.0,-418.0,-20.0,-30.0,-321.0,219.0,571.0,-269.0
-33.0,19.0,-20.0,-29.0,-225.0,233.0,665.0,-183.0
-32.0,112.0,-2.0,-21.0,-86.0,306.0,557.0,-179.0
-2.0,11.0,-25.0,-99.0,-124.0,429.0,396.0,-321.0
-11.0,-43.0,-27.0,-148.0,-158.0,471.0,216.0,-562.0
-37.0,4.0,11.0,-37.0,-280.0,480.0,165.0,-919.0
-49.0,28.0,33.0,-9.0,-450.0,541.0,265.0,-1126.0
-17.0,-31.0,-17.0,-38.0,-476.0,607.0,380.0,-940.0
18.0,108.0,-11.0,-28.0,-384.0,725.0,445.0,-687.0
-1.0,176.0,8.0,-9.0,-321.0,823.0,439.0,-496.0
-10.0,282.0,-7.0,15.0,-220.0,758.0,521.0,-492.0
-23.0,258.0,-4.0,-15.0,-116.0,586.0,427.0,-549.0
-31.0,-30.0,-17.0,-16.0,-160.0,506.0,331.0,-484.0
-20.0,-122.0,-18.0,-6.0,-125.0,376.0,210.0,-508.0
-10.0,-64.0,-25.0,-6.0,-113.0,217.0,227.0,-455.0
11.0,-60.0,-21.0,3.0,-284.0,268.0,246.0,-529.0
33.0,-58.0,-22.0,-9.0,-551.0,396.0,102.0,-638.0
8.0,-152.0,-1.0,-16.0,-612.0,420.0,380.0,-443.0
2.0,-101.0,5.0,-3.0,-522.0,396.0,637.0,-183.0
41.0,31.0,2.0,4.0,-528.0,476.0,557.0,-59.0
24.0,38.0,-13.0,-9.0,-486.0,485.0,374.0,174.0
10.0,179.0,-38.0,12.0,-372.0,522.0,311.0,425.0
7.0,200.0,-18.0,-4.0,-295.0,593.0,362.0,261.0
-25.0,272.0,-12.0,-17.0,-384.0,586.0,284.0,-4.0
-32.0,338.0,-6.0,-17.0,-299.0,615.0,225.0,-82.0
-10.0,304.0,-43.0,-24.0,-284.0,394.0,137.0,-93.0
-32.0,168.0,-37.0,6.0,-395.0,91.0,-48.0,-59.0
-23.0,46.0,-16.0,38.0,-404.0,-69.0,-208.0,-71.0
12.0,27.0,-28.0,50.0,-380.0,-228.0,-332.0,-69.0
-4.0,-39.0,-8.0,37.0,-291.0,-307.0,-281.0,75.0
-24.0,-47.0,-22.0,10.0,-314.0,-297.0,-8.0,119.0
-17.0,-157.0,-30.0,1.0,-436.0,-268.0,180.0,3.0
12.0,-230.0,-30.0,15.0,-441.0,-195.0,160.0,-55.0
-3.0,-227.0,-24.0,-75.0,-299.0,-145.0,303.0,60.0
-29.0,-153.0,-40.0,-195.0,-319.0,-113.0,496.0,255.0
-23.0,-110.0,-29.0,-161.0,-469.0,-163.0,749.0,276.0
-7.0,-83.0,-1.0,-102.0,-505.0,-257.0,793.0,53.0
23.0,-49.0,4.0,-133.0,-631.0,-240.0,551.0,-114.0
10.0,-139.0,2.0,-115.0,-738.0,-293.0,486.0,-108.0
0.0,-214.0,10.0,-56.0,-547.0,-397.0,266.0,-31.0
9.0,-226.0,15.0,-16.0,-474.0,-419.0,129.0,50.0
23.0,-81.0,5.0,84.0,-517.0,-401.0,45.0,40.0
8.0,313.0,32.0,67.0,-511.0,-383.0,1.0,-80.0
-12.0,681.0,38.0,-11.0,-586.0,-409.0,5.0,-269.0
9.0,530.0,24.0,11.0,-663.0,-399.0,-61.0,-366.0
27.0,200.0,37.0,-37.0,-681.0,-378.0,-34.0,-345.0
45.0,-18.0,45.0,-19.0,-624.0,-336.0,-94.0,-147.0
-5.0,-397.0,44.0,-9.0,-556.0,-268.0,-52.0,88.0
-40.0,-570.0,14.0,-98.0,-523.0,-276.0,-1.0,184.0
-4.0,-440.0,34.0,-74.0,-279.0,-267.0,64.0,308.0
-5.0,-399.0,93.0,-41.0,-68.0,-208.0,9.0,409.0
-12.0,-76.0,75.0,-84.0,-189.0,-202.0,-58.0,414.0
-25.0,126.0,75.0,-66.0,-343.0,-237.0,17.0,442.0
-31.0,-102.0,67.0,-43.0,-326.0,-187.0,24.0,499.0
-29.0,-169.0,60.0,-60.0,-227.0,-157.0,110.0,367.0
-23.0,-327.0,64.0,-93.0,-276.0,-224.0,152.0,153.0
-5.0,-476.0,52.0,-94.0,-179.0,-175.0,248.0,119.0
10.0,-224.0,56.0,-57.0,25.0,-124.0,290.0,148.0
-7.0,128.0,44.0,-81.0,70.0,-98.0,297.0,184.0
-9.0,128.0,31.0,-110.0,93.0,-46.0,246.0,160.0
6.0,49.0,10.0,-61.0,72.0,-8.0,43.0,157.0
12.0,125.0,0.0,34.0,28.0,14.0,-65.0,326.0
40.0,286.0,-12.0,51.0,66.0,0.0,13.0,530.0
8.0,374.0,-30.0,35.0,227.0,-56.0,54.0,629.0
-6.0,363.0,-22.0,46.0,233.0,-76.0,41.0,547.0
12.0,542.0,-50.0,31.0,170.0,-47.0,119.0,450.0
-23.0,460.0,-95.0,-11.0,109.0,-67.0,120.0,301.0
-43.0,374.0,-112.0,49.0,-85.0,-20.0,94.0,100.0
-45.0,338.0,-89.0,156.0,-253.0,29.0,15.0,-32.0
-39.0,254.0,-64.0,164.0,-175.0,33.0,19.0,-84.0
-30.0,225.0,-80.0,125.0,-18.0,-1.0,78.0,-137.0
-47.0,-99.0,-99.0,72.0,-42.0,-18.0,143.0,-232.0
-36.0,-330.0,-99.0,30.0,27.0,9.0,132.0,-124.0
-32.0,-448.0,-73.0,27.0,70.0,-12.0,36.0,-6.0
-59.0,-310.0,-82.0,19.0,78.0,-39.0,133.0,75.0
-71.0,-68.0,-89.0,22.0,169.0,-143.0,177.0,77.0
-70.0,117.0,-68.0,15.0,162.0,-184.0,62.0,58.0
-49.0,512.0,-63.0,5.0,150.0,-161.0,83.0,196.0
-49.0,412.0,-49.0,-6.0,108.0,-76.0,147.0,302.0
-33.0,182.0,-44.0,-44.0,29.0,37.0,138.0,228.0
-46.0,142.0,-22.0,-112.0,64.0,1.0,76.0,-14.0
-33.0,203.0,0.0,-93.0,92.0,-32.0,-63.0,-126.0
0.0,363.0,16.0,-3.0,-12.0,-19.0,-40.0,-116.0
6.0,298.0,3.0,6.0,-143.0,-28.0,-33.0,-64.0
5.0,248.0,6.0,60.0,-126.0,-28.0,-11.0,51.0
7.0,-65.0,16.0,106.0,-63.0,-38.0,3.0,88.0
5.0,-469.0,-25.0,140.0,-30.0,4.0,-98.0,99.0
2.0,-492.0,-32.0,472.0,68.0,64.0,-149.0,70.0
16.0,-700.0,-22.0,533.0,123.0,84.0,-281.0,-89.0
7.0,-1076.0,0.0,45.0,114.0,84.0,-245.0,-128.0
-14.0,-940.0,-2.0,-266.0,112.0,31.0,-114.0,16.0
3.0,-310.0,-13.0,-433.0,200.0,-3.0,107.0,114.0
14.0,-92.0,-9.0,-444.0,226.0,-122.0,149.0,50.0
4.0,-143.0,-3.0,-373.0,293.0,-224.0,16.0,-39.0
-7.0,-37.0,-9.0,-366.0,340.0,-161.0,-8.0,-81.0
-32.0,2.0,-14.0,-155.0,298.0,-51.0,-123.0,-126.0
4.0,80.0,-2.0,59.0,335.0,78.0,-54.0,-105.0
6.0,52.0,21.0,59.0,373.0,74.0,34.0,-120.0
4.0,71.0,16.0,22.0,375.0,-2.0,-28.0,-140.0
-3.0,87.0,-14.0,15.0,348.0,-90.0,-124.0,-99.0
-29.0,111.0,-20.0,-37.0,335.0,-202.0,-140.0,-90.0
-16.0,134.0,-16.0,-9.0,309.0,-240.0,-298.0,-78.0
-44.0,87.0,2.0,-9.0,155.0,-247.0,-227.0,-71.0
-25.0,162.0,6.0,-34.0,142.0,-130.0,95.0,-26.0
-2.0,190.0,31.0,-31.0,314.0,73.0,129.0,50.0
17.0,126.0,18.0,-41.0,430.0,282.0,116.0,9.0
4.0,176.0,23.0,-30.0,627.0,343.0,-10.0,-52.0
4.0,160.0,27.0,-11.0,660.0,209.0,-84.0,-94.0
7.0,57.0,-1.0,7.0,503.0,171.0,-167.0,-86.0
-13.0,95.0,24.0,5.0,354.0,93.0,-227.0,-24.0
-5.0,90.0,24.0,22.0,264.0,18.0,-113.0,-18.0
-26.0,64.0,35.0,44.0,321.0,-102.0,-69.0,7.0
-3.0,74.0,15.0,40.0,277.0,-228.0,-76.0,40.0
-4.0,44.0,36.0,46.0,224.0,-216.0,-17.0,-18.0
9.0,70.0,27.0,34.0,163.0,-138.0,-4.0,1.0
-1.0,50.0,-8.0,22.0,171.0,51.0,34.0,59.0
-23.0,20.0,4.0,-16.0,180.0,156.0,135.0,34.0
10.0,18.0,-2.0,-35.0,63.0,345.0,102.0,12.0
-2.0,-11.0,3.0,-3.0,126.0,441.0,23.0,-33.0
0.0,-77.0,10.0,-6.0,154.0,497.0,-12.0,5.0
15.0,-86.0,14.0,-80.0,108.0,548.0,-39.0,22.0
-6.0,-46.0,30.0,-175.0,-12.0,473.0,-66.0,55.0
-1.0,-36.0,36.0,-146.0,-122.0,361.0,9.0,112.0
44.0,-1.0,21.0,-51.0,-87.0,197.0,35.0,94.0
70.0,-84.0,13.0,38.0,-75.0,31.0,-27.0,62.0
70.0,-196.0,-9.0,59.0,-68.0,-174.0,-94.0,-40.0
31.0,-22.0,-9.0,35.0,6.0,-146.0,17.0,-21.0
-1.0,272.0,12.0,80.0,21.0,-23.0,53.0,-2.0
-28.0,438.0,6.0,168.0,-89.0,61.0,-81.0,-59.0
-43.0,437.0,-7.0,158.0,-143.0,155.0,8.0,-14.0
-56.0,394.0,-7.0,75.0,-106.0,206.0,54.0,-37.0
-65.0,273.0,-1.0,46.0,-123.0,203.0,38.0,-37.0
-67.0,-52.0,-8.0,-49.0,-168.0,107.0,-8.0,31.0
-66.0,-419.0,7.0,-36.0,-155.0,98.0,-61.0,42.0
-7.0,-736.0,5.0,-17.0,-75.0,115.0,-134.0,64.0
-5.0,-743.0,6.0,-47.0,-105.0,87.0,-88.0,135.0
-25.0,-519.0,0.0,-41.0,-185.0,56.0,120.0,159.0
-27.0,-230.0,-2.0,-34.0,-122.0,69.0,67.0,80.0
-20.0,12.0,3.0,10.0,-95.0,98.0,-49.0,27.0
-20.0,99.0,-12.0,-9.0,-105.0,95.0,-105.0,-15.0
-36.0,189.0,-13.0,0.0,-168.0,75.0,-110.0,-6.0
-27.0,189.0,-16.0,-22.0,-288.0,143.0,-46.0,-9.0
-21.0,197.0,-10.0,-34.0,-328.0,219.0,-9.0,4.0
-12.0,208.0,-15.0,-41.0,-201.0,246.0,132.0,43.0
-3.0,241.0,-25.0,-41.0,-53.0,237.0,140.0,9.0
-10.0,244.0,-6.0,-34.0,-67.0,155.0,104.0,-27.0
-4.0,77.0,-6.0,-39.0,40.0,155.0,24.0,-144.0
18.0,25.0,7.0,-12.0,85.0,172.0,-30.0,-191.0
0.0,28.0,3.0,-54.0,20.0,83.0,107.0,-226.0
0.0,-117.0,4.0,-44.0,-24.0,42.0,131.0,-260.0
17.0,-75.0,-5.0,-42.0,-16.0,36.0,84.0,-211.0
20.0,41.0,-29.0,-46.0,69.0,50.0,-21.0,-194.0
42.0,195.0,-30.0,-32.0,55.0,86.0,-107.0,-132.0
31.0,222.0,-32.0,-32.0,29.0,85.0,-304.0,-127.0
-6.0,38.0,-16.0,-17.0,34.0,100.0,-570.0,-156.0
9.0,24.0,-26.0,-26.0,62.0,83.0,-408.0,-34.0
-10.0,-220.0,-11.0,3.0,54.0,36.0,-38.0,131.0
-18.0,-111.0,7.0,15.0,43.0,58.0,47.0,119.0
-14.0,48.0,-21.0,-5.0,55.0,78.0,90.0,108.0
-24.0,-37.0,-38.0,-27.0,114.0,61.0,129.0,112.0
-25.0,50.0,-22.0,-4.0,9.0,2.0,119.0,42.0
-27.0,-28.0,-12.0,8.0,-211.0,-13.0,105.0,17.0
-11.0,15.0,5.0,6.0,-75.0,44.0,56.0,66.0
27.0,-5.0,37.0,33.0,118.0,67.0,54.0,153.0
12.0,10.0,24.0,-31.0,308.0,86.0,0.0,220.0
-14.0,6.0,4.0,-70.0,366.0,88.0,67.0,229.0
23.0,-42.0,2.0,-49.0,182.0,4.0,84.0,201.0
0.0,-8.0,-1.0,-48.0,52.0,-65.0,1.0,12.0
13.0,56.0,-6.0,-38.0,-59.0,-84.0,-55.0,-134.0
7.0,20.0,-19.0,-62.0,-89.0,-98.0,-33.0,-82.0
-40.0,-88.0,-13.0,-81.0,-90.0,-101.0,29.0,6.0
-29.0,-11.0,-38.0,-91.0,-101.0,-124.0,-16.0,79.0
-49.0,-35.0,-36.0,-120.0,-53.0,-113.0,-27.0,153.0
-21.0,-37.0,-49.0,-90.0,55.0,-146.0,-46.0,137.0
-39.0,-49.0,-40.0,-65.0,162.0,-171.0,-130.0,-11.0
-25.0,-47.0,-36.0,-39.0,60.0,-148.0,-159.0,-101.0
4.0,-20.0,-40.0,-4.0,-79.0,-122.0,-3.0,-151.0
-37.0,-14.0,-24.0,16.0,-76.0,-91.0,120.0,-49.0
-16.0,77.0,-18.0,95.0,-82.0,-66.0,99.0,152.0
-2.0,-5.0,20.0,80.0,38.0,49.0,110.0,224.0
3.0,-86.0,-2.0,27.0,196.0,18.0,249.0,176.0
-19.0,-62.0,4.0,59.0,141.0,-68.0,127.0,151.0
-20.0,-17.0,7.0,31.0,149.0,-10.0,-1.0,54.0
14.0,17.0,0.0,34.0,128.0,8.0,138.0,-73.0
14.0,85.0,0.0,28.0,80.0,13.0,-72.0,-81.0
14.0,140.0,11.0,28.0,97.0,-10.0,-110.0,-8.0
5.0,113.0,12.0,34.0,88.0,-49.0,-45.0,95.0
-15.0,63.0,-9.0,15.0,224.0,-38.0,27.0,83.0
-14.0,-44.0,11.0,25.0,293.0,-21.0,97.0,14.0
-2.0,-178.0,-8.0,-15.0,310.0,-22.0,-31.0,-4.0
9.0,-209.0,-36.0,-56.0,302.0,-10.0,-47.0,-58.0
7.0,-196.0,-5.0,-60.0,295.0,-27.0,-81.0,-75.0
-16.0,-85.0,19.0,-45.0,298.0,-24.0,5.0,-26.0
-5.0,81.0,8.0,-22.0,241.0,-50.0,53.0,15.0
-4.0,146.0,9.0,-16.0,272.0,10.0,20.0,-15.0
-6.0,141.0,5.0,-27.0,372.0,132.0,-22.0,-37.0
-31.0,175.0,-7.0,-13.0,456.0,65.0,-32.0,-83.0
-39.0,244.0,-14.0,38.0,308.0,41.0,40.0,-119.0
-47.0,133.0,-10.0,13.0,249.0,32.0,138.0,-126.0
-36.0,40.0,-17.0,-19.0,432.0,17.0,135.0,-144.0
-17.0,-33.0,-2.0,-15.0,424.0,37.0,42.0,-93.0
-11.0,3.0,0.0,-15.0,375.0,12.0,-106.0,-153.0
-26.0,45.0,0.0,20.0,335.0,10.0,-238.0,-260.0
-31.0,-105.0,-1.0,-21.0,241.0,-43.0,-213.0,-274.0
-3.0,-182.0,-41.0,-100.0,103.0,-80.0,-216.0,-264.0
2.0,-97.0,-8.0,-146.0,-52.0,-82.0,-108.0,-262.0
15.0,-49.0,3.0,-93.0,-73.0,-63.0,80.0,-211.0
-2.0,19.0,-16.0,47.0,-48.0,-11.0,67.0,-202.0
4.0,95.0,-24.0,290.0,-62.0,2.0,94.0,-118.0
5.0,1.0,-37.0,393.0,-44.0,42.0,693.0,137.0
-11.0,22.0,6.0,97.0,-20.0,28.0,869.0,261.0
-14.0,69.0,33.0,-119.0,-40.0,-28.0,362.0,249.0
-10.0,66.0,13.0,-251.0,-111.0,-63.0,280.0,241.0
-21.0,17.0,-15.0,-323.0,-223.0,-59.0,163.0,286.0
-47.0,23.0,-19.0,-291.0,-311.0,-76.0,142.0,253.0
-35.0,180.0,-2.0,-323.0,-295.0,-36.0,160.0,125.0
-19.0,542.0,-1.0,-206.0,-288.0,-22.0,93.0,131.0
-14.0,1049.0,-31.0,3.0,-267.0,-29.0,56.0,43.0
-6.0,927.0,1.0,23.0,-253.0,21.0,-43.0,-21.0
1.0,254.0,4.0,28.0,-360.0,4.0,29.0,95.0
11.0,-342.0,16.0,51.0,-354.0,-2.0,-1.0,161.0
-8.0,-887.0,19.0,-15.0,-225.0,-16.0,-9.0,230.0
5.0,-1218.0,-4.0,12.0,-58.0,-9.0,-47.0,237.0
-3.0,-1310.0,15.0,7.0,5.0,-36.0,-130.0,120.0
-4.0,-1008.0,-11.0,-22.0,-32.0,-32.0,-101.0,35.0
7.0,-520.0,24.0,3.0,-37.0,-29.0,70.0,41.0
-11.0,-156.0,30.0,48.0,-18.0,4.0,194.0,49.0
-2.0,323.0,-1.0,51.0,137.0,95.0,172.0,-14.0
-26.0,438.0,17.0,45.0,293.0,87.0,156.0,50.0
-24.0,206.0,24.0,46.0,308.0,113.0,150.0,213.0
-5.0,75.0,40.0,18.0,367.0,91.0,114.0,199.0
-4.0,23.0,36.0,65.0,401.0,49.0,-13.0,153.0
-20.0,-55.0,7.0,50.0,233.0,45.0,-108.0,155.0
-24.0,-179.0,-2.0,28.0,180.0,39.0,-187.0,153.0
11.0,-241.0,7.0,62.0,332.0,62.0,-112.0,100.0
2.0,-318.0,-3.0,39.0,459.0,44.0,-48.0,47.0
3.0,-23.0,-23.0,-9.0,395.0,95.0,-124.0,159.0
3.0,191.0,-22.0,11.0,290.0,185.0,-33.0,225.0
12.0,223.0,4.0,15.0,296.0,167.0,200.0,198.0
27.0,451.0,14.0,-10.0,290.0,95.0,276.0,117.0
8.0,469.0,4.0,0.0,324.0,33.0,129.0,-11.0
23.0,477.0,2.0,-5.0,361.0,-18.0,-51.0,-49.0
37.0,465.0,4.0,5.0,423.0,-7.0,75.0,4.0
27.0,371.0,-18.0,2.0,528.0,73.0,210.0,106.0
21.0,106.0,-11.0,10.0,553.0,91.0,119.0,145.0
21.0,-27.0,-27.0,26.0,440.0,39.0,13.0,104.0
1.0,-12.0,-21.0,15.0,337.0,73.0,-64.0,104.0
-8.0,-39.0,3.0,62.0,375.0,81.0,-159.0,106.0
-25.0,41.0,-56.0,48.0,497.0,66.0,-157.0,15.0
-5.0,75.0,-23.0,-23.0,542.0,35.0,189.0,43.0
13.0,57.0,-7.0,-72.0,390.0,4.0,283.0,82.0
-43.0,13.0,-32.0,-75.0,253.0,-25.0,66.0,3.0
-60.0,55.0,-26.0,-96.0,169.0,-35.0,-39.0,18.0
-32.0,70.0,-41.0,-125.0,69.0,-10.0,-82.0,26.0
-29.0,68.0,-57.0,-95.0,-39.0,-33.0,-143.0,-5.0
-23.0,157.0,-24.0,-51.0,-183.0,-5.0,-161.0,10.0
-39.0,98.0,-28.0,-36.0,-425.0,-28.0,-63.0,-29.0
-35.0,0.0,-33.0,-35.0,-395.0,-26.0,-172.0,-100.0
-18.0,25.0,-26.0,-44.0,-211.0,20.0,-202.0,-45.0
-17.0,80.0,-29.0,-41.0,-267.0,14.0,-62.0,-78.0
-45.0,32.0,-24.0,-69.0,-404.0,9.0,-135.0,-211.0
-36.0,-88.0,-38.0,-74.0,-514.0,-12.0,-216.0,-161.0
-18.0,-131.0,-13.0,-73.0,-514.0,-15.0,-97.0,-44.0
-58.0,-149.0,-10.0,-56.0,-543.0,-10.0,197.0,73.0
-19.0,-216.0,-17.0,-55.0,-539.0,-1.0,210.0,145.0
1.0,-222.0,-13.0,-61.0,-483.0,45.0,54.0,99.0
17.0,-205.0,-2.0,-45.0,-384.0,176.0,36.0,-68.0
-13.0,-204.0,-27.0,-57.0,-181.0,185.0,-49.0,-223.0
-12.0,-112.0,-20.0,-32.0,4.0,137.0,-68.0,-206.0
28.0,-19.0,-12.0,-17.0,78.0,154.0,43.0,-198.0
-12.0,-66.0,-25.0,-10.0,98.0,74.0,191.0,-164.0
7.0,-53.0,-7.0,15.0,131.0,-51.0,246.0,-79.0
-5.0,-39.0,-12.0,5.0,-2.0,-114.0,165.0,-33.0
24.0,-132.0,17.0,-12.0,-191.0,-133.0,90.0,-10.0
60.0,-83.0,26.0,22.0,-341.0,-120.0,9.0,6.0
45.0,-43.0,17.0,29.0,-582.0,-105.0,-91.0,-31.0
28.0,-47.0,8.0,21.0,-704.0,-75.0,-85.0,-23.0
-12.0,-1.0,27.0,18.0,-659.0,-22.0,47.0,35.0
-1.0,45.0,44.0,12.0,-486.0,-12.0,141.0,30.0
6.0,15.0,34.0,11.0,-217.0,30.0,214.0,29.0
-21.0,3.0,39.0,-14.0,-190.0,28.0,220.0,42.0
-34.0,176.0,34.0,-2.0,-81.0,-11.0,143.0,64.0
-24.0,182.0,33.0,-5.0,89.0,-32.0,42.0,157.0
-35.0,55.0,11.0,-21.0,165.0,-82.0,-14.0,190.0
-19.0,76.0,26.0,-3.0,187.0,-47.0,64.0,137.0
-4.0,-6.0,16.0,10.0,33.0,20.0,19.0,117.0
-26.0,-62.0,20.0,-9.0,85.0,33.0,95.0,29.0
-15.0,9.0,8.0,-14.0,88.0,28.0,220.0,24.0
-2.0,-26.0,16.0,-31.0,59.0,22.0,86.0,28.0
15.0,29.0,40.0,-51.0,52.0,-6.0,-48.0,-33.0
7.0,32.0,4.0,-38.0,-123.0,-10.0,-117.0,-59.0
-11.0,70.0,33.0,-43.0,-262.0,-13.0,-149.0,-27.0
-9.0,108.0,18.0,-5.0,-245.0,14.0,-80.0,133.0
-24.0,62.0,15.0,-26.0,-130.0,35.0,-19.0,135.0
-7.0,62.0,14.0,-62.0,-147.0,35.0,-55.0,108.0
-5.0,4.0,-10.0,-6.0,37.0,51.0,-15.0,75.0
-24.0,17.0,11.0,5.0,155.0,13.0,85.0,9.0
-8.0,-1.0,-9.0,12.0,143.0,24.0,37.0,83.0
-29.0,-5.0,-13.0,-2.0,245.0,41.0,5.0,128.0
-46.0,-12.0,-22.0,-19.0,208.0,15.0,-44.0,78.0
-35.0,-18.0,-28.0,-25.0,302.0,20.0,-257.0,17.0
-17.0,-4.0,-18.0,-16.0,314.0,31.0,-207.0,23.0
-31.0,37.0,-27.0,-5.0,145.0,65.0,-141.0,39.0
-32.0,82.0,-52.0,-21.0,52.0,54.0,-147.0,22.0
-18.0,64.0,-25.0,-8.0,-78.0,66.0,-102.0,-35.0
-9.0,217.0,-1.0,-33.0,-137.0,132.0,-102.0,-95.0
-1.0,307.0,-5.0,-29.0,-122.0,178.0,56.0,-121.0
-37.0,134.0,18.0,-30.0,-164.0,119.0,110.0,-150.0
14.0,-30.0,-10.0,-80.0,-245.0,79.0,50.0,-97.0
14.0,-188.0,-21.0,-92.0,-378.0,20.0,40.0,-60.0
-27.0,-368.0,-14.0,-91.0,-478.0,-57.0,61.0,-73.0
1.0,-568.0,-22.0,-78.0,-434.0,-12.0,-21.0,34.0
23.0,-730.0,-15.0,-44.0,-299.0,42.0,-182.0,105.0
12.0,-437.0,-2.0,-26.0,-99.0,95.0,-212.0,21.0
-10.0,-13.0,6.0,-2.0,111.0,110.0,-71.0,-26.0
2.0,90.0,-11.0,17.0,140.0,94.0,87.0,-31.0
7.0,95.0,-18.0,16.0,-92.0,15.0,69.0,-28.0
14.0,110.0,-5.0,25.0,-299.0,1.0,-2.0,-31.0
1.0,152.0,12.0,20.0,-135.0,104.0,-127.0,49.0
0.0,225.0,19.0,31.0,75.0,237.0,-117.0,200.0
-1.0,181.0,-6.0,35.0,112.0,237.0,154.0,235.0
-3.0,64.0,-8.0,27.0,83.0,183.0,166.0,145.0
0.0,49.0,10.0,187.0,30.0,167.0,131.0,100.0
-15.0,-44.0,21.0,590.0,76.0,99.0,200.0,158.0
-4.0,-154.0,47.0,663.0,78.0,38.0,84.0,142.0
5.0,-135.0,35.0,154.0,78.0,-8.0,40.0,51.0
15.0,18.0,9.0,-178.0,105.0,-4.0,158.0,-17.0
-5.0,59.0,23.0,-336.0,-47.0,20.0,238.0,-150.0
-20.0,1.0,-3.0,-418.0,-221.0,15.0,228.0,-218.0
-4.0,36.0,2.0,-381.0,-217.0,-16.0,181.0,-207.0
-18.0,102.0,-1.0,-450.0,-241.0,12.0,131.0,-234.0
-16.0,325.0,-8.0,-282.0,-124.0,86.0,-104.0,-321.0
-1.0,371.0,-26.0,-47.0,176.0,89.0,-424.0,-274.0
-24.0,217.0,-48.0,1.0,471.0,49.0,-533.0,-13.0
-25.0,381.0,-45.0,30.0,599.0,77.0,-195.0,276.0
-20.0,383.0,-50.0,59.0,288.0,70.0,300.0,409.0
-25.0,145.0,-22.0,40.0,150.0,29.0,702.0,236.0
1.0,44.0,-10.0,77.0,273.0,-1.0,858.0,-9.0
25.0,-114.0,-8.0,68.0,178.0,-40.0,689.0,-32.0
27.0,-265.0,-15.0,38.0,-152.0,-51.0,486.0,-46.0
-21.0,-444.0,-7.0,52.0,-254.0,-1.0,258.0,-29.0
-10.0,-398.0,-14.0,12.0,44.0,57.0,152.0,34.0
5.0,37.0,-20.0,22.0,265.0,19.0,61.0,-40.0
-5.0,342.0,-1.0,8.0,570.0,-20.0,25.0,-99.0
12.0,150.0,-4.0,6.0,635.0,-57.0,23.0,-98.0
-9.0,14.0,7.0,-10.0,224.0,-82.0,-36.0,-59.0
6.0,155.0,-40.0,-63.0,41.0,-49.0,-47.0,-52.0
-37.0,22.0,-49.0,-94.0,83.0,-34.0,-88.0,-130.0
-89.0,16.0,-12.0,-92.0,273.0,-24.0,-112.0,-183.0
-69.0,-18.0,-13.0,-48.0,363.0,-27.0,-44.0,-191.0
-62.0,-150.0,-39.0,-14.0,375.0,-55.0,-15.0,-95.0
-60.0,5.0,-37.0,6.0,444.0,-37.0,-41.0,43.0
-53.0,53.0,-15.0,0.0,-6.0,-6.0,-52.0,84.0
-13.0,9.0,-27.0,76.0,-284.0,43.0,-105.0,83.0
-39.0,3.0,-9.0,144.0,-328.0,67.0,-76.0,-17.0
-34.0,-143.0,-23.0,99.0,-502.0,54.0,-110.0,-163.0
12.0,-182.0,-44.0,9.0,-792.0,45.0,-73.0,-114.0
-4.0,-87.0,-22.0,22.0,-1072.0,-22.0,-3.0,47.0
-16.0,-66.0,-18.0,2.0,-836.0,-14.0,-89.0,196.0
-4.0,-54.0,0.0,1.0,-364.0,-32.0,-169.0,312.0
2.0,-51.0,-10.0,44.0,182.0,-47.0,-407.0,203.0
-9.0,-85.0,-36.0,-9.0,335.0,-57.0,-373.0,31.0
7.0,-112.0,-31.0,-72.0,106.0,-83.0,-14.0,19.0
-6.0,-87.0,-12.0,-107.0,119.0,4.0,143.0,65.0
-20.0,-37.0,-3.0,-110.0,110.0,61.0,89.0,34.0
-12.0,-9.0,-15.0,-87.0,140.0,51.0,-77.0,7.0
-12.0,-15.0,-21.0,-110.0,88.0,33.0,-98.0,87.0
-1.0,9.0,-3.0,-87.0,30.0,-22.0,30.0,137.0
12.0,38.0,14.0,-14.0,119.0,-39.0,119.0,99.0
21.0,34.0,-5.0,3.0,337.0,8.0,141.0,105.0
-5.0,39.0,2.0,12.0,462.0,21.0,-13.0,129.0
-22.0,47.0,9.0,-69.0,493.0,16.0,-53.0,140.0
12.0,46.0,7.0,-133.0,553.0,30.0,-90.0,211.0
12.0,17.0,33.0,-78.0,528.0,29.0,-33.0,202.0
27.0,-44.0,33.0,12.0,379.0,40.0,161.0,156.0
21.0,-52.0,17.0,29.0,288.0,96.0,170.0,66.0
17.0,-37.0,2.0,63.0,459.0,63.0,165.0,-46.0
16.0,-9.0,4.0,77.0,491.0,-11.0,141.0,-54.0
12.0,50.0,-2.0,69.0,541.0,-36.0,170.0,-4.0
15.0,109.0,-2.0,106.0,522.0,-53.0,119.0,13.0
-2.0,254.0,-1.0,54.0,320.0,-54.0,-172.0,-78.0
-6.0,193.0,-11.0,16.0,293.0,-66.0,-613.0,-116.0
-14.0,23.0,21.0,18.0,171.0,-11.0,-737.0,26.0
5.0,3.0,37.0,-28.0,-40.0,-8.0,-117.0,148.0
10.0,-125.0,23.0,-25.0,-99.0,-26.0,333.0,83.0
9.0,-177.0,3.0,-39.0,48.0,14.0,260.0,67.0
-7.0,-37.0,20.0,-30.0,270.0,-6.0,297.0,60.0
-19.0,156.0,21.0,-22.0,497.0,28.0,310.0,15.0
-10.0,508.0,10.0,-29.0,607.0,25.0,158.0,12.0
-14.0,868.0,15.0,-22.0,403.0,-4.0,74.0,5.0
-16.0,811.0,-6.0,-54.0,93.0,13.0,120.0,66.0
-3.0,420.0,19.0,-45.0,-61.0,36.0,78.0,2.0
6.0,66.0,-7.0,-13.0,-12.0,49.0,-43.0,-30.0
20.0,-367.0,-20.0,8.0,121.0,22.0,-129.0,-15.0
33.0,-830.0,-35.0,-24.0,161.0,4.0,-159.0,-55.0
14.0,-1095.0,-41.0,-32.0,157.0,-38.0,-122.0,-37.0
7.0,-895.0,-20.0,-13.0,12.0,-100.0,-72.0,-46.0
-19.0,-465.0,-23.0,-4.0,-158.0,-109.0,-92.0,-50.0
-28.0,-260.0,-17.0,-16.0,-253.0,-62.0,-213.0,-20.0
-34.0,9.0,-16.0,-34.0,-408.0,-59.0,-133.0,-15.0
-40.0,73.0,-22.0,-30.0,-451.0,-51.0,98.0,-3.0
-34.0,38.0,-48.0,-13.0,-315.0,48.0,73.0,-14.0
-20.0,33.0,-47.0,-1.0,-89.0,71.0,15.0,-43.0
5.0,-45.0,-6.0,-20.0,14.0,67.0,-30.0,9.0
5.0,-34.0,-11.0,-39.0,-94.0,78.0,-4.0,43.0
-33.0,-22.0,-17.0,-35.0,-140.0,76.0,65.0,53.0
-31.0,-22.0,-24.0,-51.0,-245.0,49.0,61.0,-6.0
17.0,-94.0,-9.0,-52.0,-278.0,61.0,67.0,-24.0
7.0,-30.0,15.0,-30.0,-148.0,44.0,-82.0,-13.0
2.0,78.0,5.0,-34.0,-116.0,-9.0,-33.0,-13.0
-25.0,115.0,-19.0,-39.0,-132.0,-3.0,155.0,3.0
-31.0,117.0,-15.0,-25.0,-135.0,39.0,191.0,19.0
-1.0,270.0,-2.0,-32.0,-116.0,91.0,161.0,-22.0
-20.0,355.0,14.0,-36.0,-185.0,101.0,98.0,-91.0
-35.0,281.0,24.0,-30.0,-307.0,95.0,138.0,-43.0
-33.0,256.0,-22.0,-20.0,-258.0,109.0,47.0,-68.0
-25.0,158.0,-18.0,-18.0,-199.0,130.0,-47.0,-72.0
18.0,205.0,-5.0,13.0,-288.0,39.0,-43.0,-66.0
21.0,215.0,-26.0,13.0,-299.0,-16.0,51.0,-24.0
-31.0,-22.0,-14.0,-16.0,-189.0,18.0,225.0,42.0
-12.0,-182.0,-6.0,-19.0,-150.0,32.0,213.0,53.0
1.0,-244.0,-5.0,-17.0,-109.0,25.0,171.0,47.0
-17.0,-162.0,-1.0,-47.0,-124.0,-64.0,120.0,8.0
-8.0,-95.0,-2.0,-103.0,-291.0,-72.0,64.0,21.0
-16.0,-76.0,-8.0,-97.0,-490.0,-75.0,54.0,32.0
-20.0,-30.0,-1.0,-34.0,-543.0,-47.0,-72.0,-43.0
-17.0,102.0,-11.0,28.0,-411.0,66.0,-94.0,-175.0
-26.0,181.0,-16.0,370.0,-156.0,148.0,83.0,-114.0
-40.0,135.0,12.0,577.0,49.0,254.0,124.0,-3.0
-15.0,145.0,10.0,152.0,13.0,268.0,61.0,8.0
-21.0,-3.0,8.0,-194.0,-59.0,221.0,11.0,71.0
-17.0,-68.0,36.0,-305.0,-225.0,200.0,30.0,96.0
8.0,-176.0,28.0,-388.0,-210.0,135.0,56.0,96.0
9.0,-236.0,35.0,-332.0,-168.0,124.0,-14.0,65.0
62.0,-175.0,61.0,-357.0,-240.0,115.0,-52.0,-10.0
30.0,-179.0,38.0,-232.0,-295.0,41.0,-3.0,-66.0
4.0,-8.0,15.0,39.0,-129.0,-1.0,170.0,-124.0
0.0,67.0,-3.0,150.0,126.0,19.0,213.0,-245.0
17.0,163.0,-8.0,90.0,16.0,-29.0,43.0,-312.0
13.0,258.0,-6.0,69.0,52.0,-29.0,-19.0,-203.0
-42.0,329.0,-6.0,19.0,32.0,5.0,-20.0,-65.0
-34.0,262.0,-10.0,-10.0,42.0,-16.0,-45.0,-22.0
-38.0,65.0,-36.0,21.0,73.0,4.0,-107.0,31.0
7.0,52.0,-13.0,-14.0,84.0,62.0,-110.0,47.0
17.0,20.0,3.0,12.0,137.0,105.0,-17.0,3.0
-24.0,146.0,-6.0,23.0,53.0,95.0,-10.0,45.0
-36.0,338.0,-28.0,10.0,-130.0,56.0,-44.0,50.0
-24.0,502.0,-29.0,81.0,-319.0,54.0,138.0,-84.0
-6.0,656.0,17.0,81.0,-277.0,47.0,225.0,-195.0
3.0,365.0,4.0,23.0,-190.0,22.0,126.0,-17.0
-18.0,-177.0,2.0,28.0,-159.0,8.0,106.0,236.0
-28.0,-440.0,-15.0,2.0,-208.0,-18.0,79.0,239.0
8.0,-763.0,-27.0,0.0,-258.0,-23.0,106.0,164.0
11.0,-927.0,-30.0,-33.0,-248.0,36.0,94.0,28.0
-13.0,-732.0,-37.0,-18.0,-295.0,25.0,-85.0,-48.0
-30.0,-297.0,-35.0,-6.0,-378.0,-25.0,-251.0,43.0
-23.0,78.0,-36.0,4.0,-256.0,-11.0,-81.0,129.0
-8.0,-18.0,-15.0,33.0,-11.0,-2.0,167.0,144.0
11.0,-19.0,-18.0,85.0,75.0,15.0,380.0,123.0
0.0,-50.0,-7.0,133.0,-2.0,17.0,402.0,108.0
0.0,-39.0,-26.0,37.0,-189.0,16.0,203.0,60.0
-7.0,-10.0,-32.0,-39.0,-343.0,57.0,143.0,-44.0
-39.0,-57.0,-13.0,-71.0,-490.0,49.0,-35.0,-59.0
6.0,-1.0,-5.0,-15.0,-547.0,51.0,-167.0,-130.0
-1.0,-36.0,6.0,-34.0,-494.0,84.0,-152.0,-213.0
-19.0,-28.0,-8.0,-80.0,-276.0,81.0,-142.0,-72.0
5.0,87.0,6.0,-34.0,8.0,58.0,-89.0,66.0
-5.0,160.0,-8.0,-32.0,-28.0,45.0,-40.0,165.0
-41.0,160.0,-37.0,-13.0,-66.0,40.0,-52.0,225.0
-7.0,170.0,-8.0,-47.0,-18.0,53.0,-24.0,171.0
-19.0,70.0,-8.0,-62.0,37.0,56.0,6.0,108.0
-33.0,40.0,-22.0,-53.0,-3.0,1.0,-3.0,71.0
-1.0,28.0,-15.0,-59.0,-25.0,-31.0,45.0,14.0
-26.0,20.0,-9.0,-50.0,432.0,-71.0,40.0,30.0
-2.0,14.0,1.0,-45.0,659.0,-45.0,39.0,149.0
-20.0,-21.0,-11.0,-22.0,288.0,8.0,-19.0,252.0
-25.0,21.0,6.0,-28.0,245.0,8.0,-133.0,239.0
1.0,7.0,4.0,-21.0,493.0,25.0,-149.0,253.0
-14.0,49.0,-31.0,-22.0,692.0,46.0,-139.0,281.0
-5.0,52.0,-8.0,-15.0,672.0,65.0,-156.0,169.0
-8.0,34.0,4.0,0.0,619.0,66.0,-98.0,145.0
10.0,57.0,3.0,11.0,683.0,62.0,-48.0,207.0
16.0,98.0,20.0,2.0,537.0,57.0,-56.0,186.0
-2.0,119.0,43.0,17.0,469.0,48.0,-5.0,182.0
8.0,98.0,7.0,31.0,367.0,36.0,7.0,227.0
17.0,58.0,28.0,16.0,296.0,-6.0,61.0,319.0
25.0,17.0,15.0,19.0,282.0,-19.0,129.0,344.0
5.0,57.0,-17.0,15.0,308.0,-22.0,54.0,220.0
-21.0,205.0,-7.0,9.0,553.0,-33.0,14.0,38.0
-16.0,410.0,-22.0,-5.0,602.0,-4.0,41.0,-131.0
-36.0,376.0,-17.0,-9.0,390.0,29.0,88.0,-130.0
1.0,159.0,4.0,-5.0,296.0,135.0,-55.0,-130.0
17.0,-2.0,25.0,-11.0,310.0,368.0,-197.0,-139.0
-5.0,-181.0,-3.0,-3.0,375.0,576.0,-129.0,8.0
-20.0,-398.0,6.0,1.0,267.0,613.0,-83.0,81.0
-27.0,-556.0,4.0,-9.0,171.0,463.0,-36.0,133.0
-1.0,-591.0,9.0,-8.0,290.0,227.0,-43.0,119.0
-12.0,-369.0,9.0,-1.0,237.0,-71.0,-2.0,123.0
-18.0,-94.0,17.0,-3.0,390.0,-289.0,77.0,112.0
-8.0,99.0,17.0,-5.0,440.0,-409.0,50.0,117.0
-17.0,200.0,-3.0,-14.0,302.0,-419.0,130.0,157.0
-15.0,110.0,-28.0,-21.0,318.0,-244.0,177.0,79.0
-11.0,-32.0,-15.0,-26.0,245.0,-115.0,90.0,60.0
-13.0,-145.0,-4.0,-1.0,187.0,-108.0,91.0,128.0
0.0,-139.0,-20.0,-34.0,141.0,-56.0,69.0,184.0
-12.0,-49.0,9.0,-32.0,216.0,-45.0,41.0,200.0
-17.0,5.0,-5.0,-30.0,296.0,-82.0,48.0,168.0
-4.0,34.0,-26.0,-68.0,219.0,-131.0,73.0,85.0
-27.0,-37.0,-36.0,-38.0,61.0,-161.0,-17.0,-104.0
-27.0,-11.0,-34.0,-47.0,63.0,-196.0,-157.0,-166.0
-4.0,134.0,-18.0,-42.0,9.0,-247.0,-224.0,-91.0
-11.0,176.0,-15.0,-38.0,-114.0,-222.0,-176.0,-77.0
-48.0,87.0,-14.0,-26.0,43.0,-182.0,35.0,-29.0
-26.0,72.0,-45.0,-16.0,166.0,-114.0,71.0,-27.0
-5.0,130.0,-31.0,-21.0,101.0,-82.0,5.0,18.0
-31.0,160.0,-26.0,-13.0,-99.0,-25.0,-31.0,56.0
-30.0,225.0,-19.0,-29.0,-307.0,-22.0,78.0,14.0
-44.0,57.0,-18.0,-17.0,-193.0,-11.0,203.0,-12.0
-37.0,-19.0,-26.0,-35.0,-65.0,24.0,151.0,-65.0
-46.0,19.0,-11.0,-22.0,-56.0,-6.0,142.0,-39.0
-14.0,31.0,-3.0,-20.0,36.0,33.0,120.0,-34.0
-20.0,53.0,-1.0,-57.0,42.0,28.0,160.0,-48.0
-10.0,66.0,-10.0,-34.0,128.0,54.0,221.0,-93.0
15.0,99.0,27.0,13.0,106.0,90.0,149.0,-168.0
-18.0,95.0,-1.0,-31.0,-40.0,50.0,146.0,-186.0
-4.0,110.0,-18.0,-81.0,-138.0,13.0,203.0,-166.0
6.0,-27.0,25.0,-9.0,-313.0,25.0,103.0,16.0
27.0,-120.0,-3.0,-17.0,-333.0,46.0,70.0,292.0
36.0,-232.0,14.0,-16.0,-170.0,79.0,138.0,399.0
55.0,-248.0,28.0,-7.0,-56.0,138.0,48.0,261.0
49.0,-53.0,36.0,-13.0,-53.0,176.0,-3.0,81.0
37.0,-47.0,33.0,90.0,-114.0,203.0,-6.0,-117.0
21.0,-16.0,7.0,76.0,-99.0,175.0,-38.0,-220.0
4.0,-8.0,39.0,11.0,-28.0,126.0,-123.0,-223.0
-9.0,72.0,4.0,7.0,-11.0,90.0,-273.0,-217.0
-56.0,200.0,-18.0,-31.0,-33.0,40.0,-207.0,-189.0
-70.0,175.0,-20.0,-81.0,-108.0,-23.0,-60.0,-210.0
-63.0,58.0,-37.0,-41.0,-78.0,-12.0,35.0,-142.0
-37.0,-107.0,-28.0,-55.0,4.0,-11.0,106.0,-152.0
-40.0,-234.0,-13.0,-72.0,53.0,-7.0,109.0,-284.0
-29.0,-267.0,-15.0,-60.0,1.0,28.0,51.0,-269.0
-8.0,-183.0,-15.0,-61.0,-48.0,84.0,-3.0,-168.0
-31.0,-183.0,7.0,-53.0,82.0,148.0,43.0,-80.0
-24.0,-49.0,-14.0,-44.0,166.0,152.0,95.0,-66.0
-32.0,70.0,-17.0,-45.0,218.0,152.0,73.0,-132.0
-35.0,43.0,-10.0,-54.0,229.0,115.0,72.0,-218.0
-14.0,20.0,7.0,-24.0,182.0,68.0,127.0,-268.0
-16.0,-33.0,14.0,18.0,163.0,31.0,67.0,-224.0
-6.0,10.0,10.0,41.0,188.0,43.0,8.0,-168.0
-1.0,28.0,-2.0,39.0,88.0,20.0,58.0,-50.0
1.0,69.0,-8.0,9.0,-190.0,24.0,80.0,13.0
0.0,60.0,14.0,-12.0,-374.0,73.0,66.0,-39.0
-2.0,90.0,38.0,87.0,-465.0,44.0,48.0,-84.0
4.0,117.0,20.0,106.0,-399.0,7.0,40.0,-192.0
-1.0,66.0,9.0,4.0,-7.0,-5.0,-9.0,-240.0
-4.0,73.0,18.0,-43.0,75.0,14.0,-16.0,-210.0
-13.0,34.0,15.0,-94.0,21.0,35.0,-17.0,-147.0
-3.0,13.0,2.0,-159.0,237.0,97.0,-50.0,-65.0
-15.0,25.0,-36.0,-194.0,177.0,99.0,-63.0,65.0
-14.0,17.0,-16.0,-131.0,379.0,27.0,-77.0,148.0
15.0,23.0,23.0,-91.0,383.0,2.0,-4.0,239.0
3.0,17.0,55.0,-147.0,285.0,16.0,133.0,322.0
26.0,34.0,49.0,-92.0,365.0,5.0,119.0,308.0
27.0,44.0,10.0,33.0,184.0,-14.0,19.0,255.0
10.0,7.0,8.0,81.0,218.0,48.0,-26.0,132.0
8.0,19.0,11.0,156.0,207.0,110.0,-83.0,51.0
17.0,29.0,13.0,164.0,171.0,100.0,-82.0,-28.0
16.0,24.0,28.0,169.0,180.0,110.0,50.0,-44.0
15.0,14.0,10.0,199.0,288.0,123.0,105.0,-1.0
27.0,47.0,3.0,329.0,355.0,61.0,0.0,174.0
-1.0,48.0,18.0,655.0,367.0,-5.0,-3.0,332.0
2.0,-12.0,-24.0,616.0,550.0,-63.0,36.0,239.0
-4.0,-1.0,-1.0,51.0,531.0,-74.0,73.0,129.0
-18.0,10.0,-8.0,-328.0,415.0,-46.0,172.0,33.0
-10.0,-6.0,-22.0,-523.0,296.0,-19.0,170.0,25.0
-2.0,-8.0,-30.0,-650.0,216.0,-8.0,132.0,39.0
8.0,8.0,-46.0,-589.0,168.0,34.0,86.0,-36.0
-6.0,-1.0,-43.0,-523.0,96.0,82.0,31.0,-92.0
-19.0,-11.0,-63.0,-389.0,255.0,88.0,17.0,-51.0
4.0,-4.0,-61.0,-87.0,175.0,67.0,56.0,-40.0
21.0,-6.0,-29.0,67.0,-76.0,31.0,-1.0,-138.0
9.0,-7.0,-17.0,77.0,-30.0,32.0,-65.0,-159.0
-8.0,-57.0,-39.0,190.0,-67.0,-3.0,-42.0,-105.0
-19.0,-57.0,-32.0,152.0,-236.0,-8.0,-139.0,-38.0
-11.0,-42.0,-51.0,93.0,-211.0,-5.0,-141.0,-20.0
-10.0,-43.0,-42.0,93.0,82.0,-24.0,-24.0,-20.0
-1.0,8.0,-15.0,21.0,126.0,-46.0,-68.0,11.0
5.0,17.0,-42.0,-18.0,-74.0,-46.0,-64.0,30.0
-4.0,-15.0,-11.0,30.0,-123.0,-17.0,25.0,47.0
-4.0,-5.0,-6.0,57.0,-268.0,-25.0,44.0,-6.0
-6.0,-10.0,-17.0,31.0,-449.0,4.0,-4.0,-14.0
8.0,-44.0,-12.0,32.0,-502.0,29.0,-44.0,92.0
-16.0,-29.0,-34.0,19.0,-543.0,43.0,-20.0,92.0
-34.0,-18.0,-15.0,13.0,-539.0,61.0,9.0,79.0
-9.0,-33.0,-15.0,12.0,-490.0,74.0,-11.0,139.0
-16.0,-21.0,-1.0,1.0,-483.0,87.0,-61.0,33.0
-25.0,-10.0,-11.0,-3.0,-286.0,100.0,4.0,-6.0
-10.0,3.0,4.0,-7.0,-15.0,102.0,61.0,6.0
-3.0,25.0,21.0,-3.0,0.0,109.0,129.0,-15.0
-20.0,22.0,-10.0,1.0,-48.0,66.0,160.0,50.0
-17.0,8.0,-12.0,-1.0,-180.0,5.0,44.0,19.0
-1.0,4.0,-11.0,-24.0,-274.0,28.0,19.0,-3.0
-12.0,-2.0,-6.0,-34.0,-238.0,4.0,30.0,33.0
5.0,5.0,25.0,-28.0,-284.0,-27.0,41.0,160.0
5.0,28.0,15.0,-15.0,-195.0,-47.0,-8.0,308.0
14.0,28.0,-2.0,-24.0,0.0,-42.0,-46.0,332.0
-2.0,10.0,15.0,-34.0,82.0,-72.0,-6.0,258.0
5.0,12.0,19.0,-28.0,-74.0,-130.0,-32.0,174.0
-14.0,5.0,10.0,-37.0,-299.0,-116.0,-34.0,163.0
-14.0,-26.0,13.0,-16.0,-335.0,-48.0,45.0,79.0
21.0,10.0,1.0,-53.0,-351.0,-30.0,40.0,-13.0
-5.0,50.0,23.0,-33.0,-360.0,-9.0,54.0,21.0
-10.0,78.0,24.0,12.0,-311.0,14.0,82.0,38.0
-20.0,201.0,-4.0,-33.0,-262.0,-32.0,40.0,154.0
-26.0,298.0,17.0,-44.0,-225.0,-31.0,142.0,182.0
-37.0,164.0,-26.0,-49.0,-217.0,-35.0,260.0,-51.0
-21.0,-17.0,-9.0,-78.0,42.0,-32.0,294.0,-142.0
10.0,-57.0,8.0,-86.0,219.0,-35.0,246.0,-188.0
-10.0,-53.0,-2.0,-31.0,47.0,-11.0,227.0,-259.0
-9.0,-96.0,16.0,-16.0,136.0,17.0,191.0,-136.0
-25.0,-190.0,-21.0,7.0,236.0,18.0,145.0,42.0
-64.0,-104.0,1.0,54.0,281.0,17.0,82.0,7.0
-55.0,91.0,24.0,83.0,293.0,1.0,0.0,25.0
-41.0,-6.0,30.0,106.0,166.0,19.0,70.0,127.0
-14.0,-176.0,26.0,144.0,125.0,-16.0,53.0,25.0
-32.0,-444.0,-2.0,95.0,92.0,20.0,8.0,-116.0
-31.0,-375.0,17.0,38.0,118.0,48.0,-16.0,-135.0
-14.0,48.0,18.0,69.0,106.0,43.0,69.0,31.0
-12.0,152.0,-23.0,-3.0,92.0,66.0,217.0,96.0
-19.0,269.0,-9.0,3.0,101.0,89.0,203.0,-28.0
-22.0,189.0,4.0,-11.0,-53.0,126.0,93.0,-9.0
-14.0,112.0,-3.0,-42.0,-177.0,131.0,-6.0,54.0
-1.0,131.0,-7.0,-7.0,-41.0,136.0,-117.0,-227.0
12.0,85.0,-20.0,-69.0,307.0,85.0,-363.0,-466.0
-2.0,-40.0,-16.0,-63.0,283.0,47.0,-456.0,-401.0
-31.0,-135.0,-4.0,-37.0,259.0,19.0,-381.0,-295.0
-37.0,-54.0,-23.0,-37.0,480.0,31.0,-273.0,60.0
-23.0,-25.0,-33.0,-63.0,403.0,8.0,-162.0,273.0
-23.0,40.0,-5.0,-82.0,402.0,-15.0,-124.0,334.0
15.0,72.0,-13.0,-88.0,505.0,16.0,-161.0,384.0
11.0,136.0,-32.0,-32.0,505.0,-22.0,-195.0,296.0
-27.0,170.0,-20.0,17.0,534.0,-62.0,-132.0,249.0
-1.0,205.0,8.0,-1.0,672.0,-83.0,-82.0,170.0
-21.0,162.0,2.0,-37.0,822.0,-29.0,-33.0,210.0
-4.0,89.0,-1.0,-16.0,737.0,-28.0,50.0,206.0
4.0,111.0,15.0,63.0,701.0,-67.0,145.0,81.0
-6.0,-18.0,9.0,-1.0,859.0,-34.0,278.0,24.0
12.0,-129.0,12.0,-35.0,801.0,-19.0,356.0,-148.0
15.0,-267.0,12.0,-40.0,621.0,33.0,291.0,-380.0
8.0,-326.0,4.0,-130.0,607.0,10.0,211.0,-386.0
3.0,-287.0,-26.0,-129.0,556.0,-12.0,160.0,-197.0
-3.0,-228.0,-29.0,-68.0,403.0,-24.0,137.0,-166.0
0.0,-131.0,5.0,-52.0,166.0,-37.0,109.0,-248.0
-2.0,-151.0,0.0,-59.0,-155.0,15.0,72.0,-177.0
-5.0,-23.0,-23.0,98.0,-132.0,-14.0,-4.0,-146.0
0.0,140.0,-20.0,518.0,253.0,-22.0,-31.0,-91.0
-40.0,131.0,3.0,634.0,438.0,4.0,-35.0,-39.0
-44.0,41.0,4.0,125.0,218.0,22.0,-145.0,-62.0
-21.0,44.0,-3.0,-172.0,60.0,2.0,-135.0,55.0
-12.0,38.0,-2.0,-346.0,-3.0,0.0,-93.0,116.0
4.0,98.0,9.0,-409.0,-108.0,33.0,-97.0,2.0
5.0,193.0,6.0,-397.0,-83.0,9.0,-38.0,-147.0
-3.0,228.0,18.0,-462.0,-152.0,12.0,-36.0,-99.0
-14.0,241.0,13.0,-214.0,-333.0,23.0,1.0,88.0
-5.0,111.0,-14.0,7.0,-82.0,29.0,14.0,224.0
-9.0,34.0,0.0,45.0,81.0,39.0,62.0,369.0
-14.0,-7.0,-26.0,15.0,-137.0,21.0,184.0,491.0
-16.0,-67.0,-22.0,-2.0,-121.0,24.0,183.0,621.0
1.0,-71.0,-18.0,-29.0,-486.0,37.0,138.0,686.0
-6.0,-82.0,-36.0,-64.0,-1137.0,22.0,65.0,651.0
-31.0,-137.0,-17.0,-155.0,-1324.0,0.0,-12.0,629.0
-29.0,-122.0,-20.0,-140.0,-1108.0,-37.0,-9.0,521.0
-21.0,-63.0,-29.0,-184.0,-702.0,-61.0,13.0,203.0
-3.0,34.0,-37.0,-133.0,-307.0,-61.0,41.0,-98.0
-11.0,57.0,8.0,44.0,-53.0,-3.0,59.0,-248.0
-3.0,-14.0,-10.0,47.0,137.0,28.0,93.0,-431.0
-10.0,1.0,-28.0,155.0,227.0,19.0,70.0,-489.0
-26.0,-16.0,-9.0,215.0,367.0,32.0,61.0,-427.0
-19.0,-15.0,-11.0,270.0,528.0,-33.0,140.0,-508.0
-5.0,-19.0,-18.0,236.0,635.0,-40.0,146.0,-427.0
-14.0,-14.0,-48.0,103.0,794.0,-22.0,98.0,-487.0
-26.0,-48.0,-49.0,112.0,682.0,-19.0,97.0,-590.0
-24.0,-47.0,-39.0,71.0,490.0,-18.0,120.0,-538.0
-33.0,-44.0,-5.0,-13.0,245.0,2.0,126.0,-527.0
-29.0,-162.0,-15.0,-6.0,218.0,35.0,155.0,-297.0
-11.0,-153.0,-15.0,-44.0,314.0,12.0,148.0,-221.0
7.0,-117.0,-17.0,-65.0,131.0,-6.0,22.0,-254.0
-3.0,-44.0,-36.0,-59.0,72.0,48.0,-90.0,-150.0
-23.0,38.0,-15.0,-46.0,-91.0,123.0,-122.0,-17.0
-9.0,164.0,-9.0,46.0,-425.0,137.0,-74.0,174.0
14.0,254.0,-8.0,12.0,-556.0,164.0,2.0,267.0
20.0,84.0,16.0,28.0,-643.0,123.0,82.0,200.0
25.0,81.0,6.0,-8.0,-582.0,80.0,56.0,104.0
21.0,95.0,-17.0,-70.0,-490.0,85.0,-53.0,74.0
-10.0,-1.0,-15.0,-106.0,-441.0,53.0,-95.0,131.0
-23.0,5.0,-26.0,-121.0,-326.0,41.0,-75.0,172.0
-8.0,19.0,2.0,-61.0,-276.0,81.0,-56.0,128.0
-8.0,-16.0,7.0,0.0,-287.0,113.0,-51.0,43.0
-16.0,-9.0,10.0,-5.0,93.0,99.0,-37.0,-19.0
-16.0,-19.0,0.0,-16.0,432.0,54.0,-43.0,71.0
-29.0,-63.0,-15.0,-1.0,335.0,30.0,-75.0,204.0
-15.0,-15.0,-7.0,-2.0,618.0,96.0,-119.0,249.0
-8.0,-11.0,-10.0,62.0,896.0,110.0,-108.0,164.0
15.0,13.0,-4.0,47.0,876.0,113.0,-100.0,81.0
27.0,25.0,0.0,-14.0,660.0,91.0,-117.0,-15.0
-13.0,9.0,1.0,-108.0,489.0,17.0,-5.0,-250.0
12.0,81.0,3.0,-89.0,683.0,43.0,50.0,-355.0
23.0,200.0,-9.0,-10.0,803.0,81.0,73.0,-260.0
17.0,273.0,-1.0,-12.0,556.0,-36.0,70.0,-69.0
12.0,209.0,33.0,27.0,237.0,-104.0,32.0,149.0
4.0,112.0,36.0,6.0,89.0,-48.0,68.0,295.0
-2.0,33.0,-3.0,27.0,-69.0,-43.0,101.0,301.0
-20.0,-18.0,-11.0,73.0,-209.0,-49.0,148.0,308.0
-12.0,-156.0,-27.0,22.0,-288.0,52.0,139.0,189.0
-37.0,-288.0,-57.0,-42.0,-608.0,246.0,90.0,27.0
-23.0,-257.0,-38.0,-65.0,-1052.0,262.0,116.0,-47.0
-26.0,-68.0,-21.0,-127.0,-1318.0,236.0,238.0,-251.0
-43.0,70.0,-1.0,-132.0,-1318.0,246.0,283.0,-220.0
-10.0,180.0,13.0,-53.0,-1182.0,160.0,248.0,-50.0
-5.0,278.0,32.0,27.0,-1137.0,138.0,181.0,16.0
-2.0,233.0,55.0,61.0,-934.0,127.0,138.0,83.0
21.0,208.0,46.0,-3.0,-669.0,126.0,82.0,267.0
39.0,-28.0,30.0,57.0,-593.0,163.0,51.0,438.0
40.0,-179.0,45.0,99.0,-502.0,191.0,29.0,391.0
11.0,-220.0,30.0,164.0,-435.0,243.0,-7.0,421.0
13.0,-333.0,-17.0,442.0,-474.0,229.0,48.0,383.0
13.0,-244.0,-15.0,577.0,-351.0,180.0,19.0,317.0
7.0,-140.0,-15.0,149.0,-124.0,217.0,-41.0,221.0
-8.0,-85.0,-13.0,-350.0,-211.0,246.0,-33.0,-72.0
-24.0,-51.0,-28.0,-556.0,-448.0,201.0,24.0,-246.0
-23.0,-32.0,-30.0,-586.0,-486.0,81.0,-46.0,-141.0
-25.0,-3.0,-11.0,-513.0,-612.0,-110.0,-200.0,97.0
-14.0,56.0,8.0,-546.0,-647.0,-202.0,-268.0,253.0
-23.0,87.0,-5.0,-401.0,-364.0,-244.0,-224.0,236.0
-29.0,-8.0,-19.0,-83.0,-125.0,-320.0,-174.0,20.0
-41.0,-83.0,-2.0,115.0,102.0,-308.0,-98.0,35.0
-22.0,-82.0,-23.0,81.0,390.0,-214.0,90.0,193.0
-10.0,-102.0,11.0,65.0,607.0,-155.0,120.0,159.0
-1.0,-109.0,4.0,122.0,641.0,-175.0,26.0,30.0
12.0,-92.0,-12.0,160.0,874.0,-190.0,-78.0,-81.0
11.0,-24.0,0.0,158.0,933.0,-211.0,-113.0,-206.0
5.0,148.0,-4.0,116.0,1213.0,-154.0,-65.0,-370.0
-13.0,188.0,19.0,178.0,1409.0,-147.0,-12.0,-397.0
-5.0,191.0,11.0,140.0,1083.0,-173.0,3.0,-278.0
-17.0,203.0,-8.0,139.0,1148.0,-147.0,-78.0,-148.0
-15.0,147.0,19.0,134.0,1189.0,-77.0,-100.0,-200.0
-2.0,140.0,24.0,110.0,1204.0,37.0,-116.0,-91.0
-13.0,30.0,12.0,134.0,1258.0,73.0,-184.0,239.0
5.0,4.0,31.0,34.0,1148.0,81.0,-192.0,467.0
15.0,77.0,18.0,-29.0,1051.0,73.0,-181.0,597.0
-13.0,146.0,11.0,4.0,998.0,167.0,-156.0,654.0
-40.0,140.0,30.0,28.0,1077.0,156.0,-97.0,695.0
-31.0,43.0,7.0,-4.0,1075.0,89.0,-149.0,455.0
-17.0,5.0,-1.0,-16.0,961.0,83.0,-268.0,147.0
0.0,47.0,-1.0,-16.0,896.0,-23.0,-163.0,-43.0
15.0,6.0,0.0,-4.0,822.0,-25.0,-24.0,-33.0
30.0,-37.0,2.0,-55.0,758.0,-58.0,-7.0,181.0
5.0,-29.0,-28.0,-80.0,876.0,-216.0,105.0,239.0
-37.0,-59.0,-4.0,-6.0,817.0,-238.0,145.0,170.0
-27.0,-18.0,15.0,-40.0,920.0,-175.0,130.0,90.0
-14.0,-16.0,-7.0,-48.0,1182.0,-228.0,127.0,155.0
-12.0,-26.0,-14.0,-36.0,1325.0,-354.0,103.0,235.0
-27.0,-53.0,-12.0,-7.0,1269.0,-419.0,160.0,253.0
-3.0,-18.0,7.0,-21.0,524.0,-318.0,155.0,426.0
-9.0,66.0,-3.0,-65.0,-20.0,-197.0,100.0,484.0
-17.0,5.0,-22.0,-119.0,-351.0,-112.0,-14.0,361.0
7.0,-41.0,-24.0,-171.0,-883.0,-29.0,-10.0,296.0
-28.0,-125.0,-20.0,-147.0,-1359.0,53.0,158.0,195.0
0.0,-207.0,-23.0,-65.0,-1782.0,191.0,256.0,176.0
15.0,-114.0,-24.0,-32.0,-1835.0,229.0,176.0,42.0
-35.0,-36.0,-32.0,-22.0,-1820.0,273.0,145.0,-187.0
-24.0,34.0,-40.0,47.0,-2537.0,293.0,229.0,-245.0
8.0,42.0,-52.0,88.0,-3315.0,229.0,209.0,-333.0
-28.0,-92.0,-39.0,101.0,-3688.0,213.0,282.0,-529.0
-58.0,-7.0,-35.0,29.0,-3687.0,155.0,302.0,-723.0
-59.0,66.0,-44.0,6.0,-2989.0,34.0,294.0,-685.0
-68.0,33.0,-40.0,37.0,-2806.0,42.0,420.0,-549.0
-24.0,1.0,-12.0,-32.0,-2806.0,90.0,498.0,-321.0
-13.0,-49.0,-3.0,-59.0,-2419.0,32.0,590.0,-205.0
-11.0,-118.0,-7.0,-67.0,-1768.0,-14.0,557.0,-158.0
-4.0,-156.0,-2.0,-81.0,-1385.0,-6.0,469.0,104.0
-1.0,-34.0,-20.0,-67.0,-1584.0,34.0,348.0,296.0
-11.0,-22.0,-27.0,-90.0,-1528.0,54.0,256.0,409.0
-32.0,16.0,-24.0,-64.0,-1573.0,119.0,300.0,462.0
-14.0,93.0,-32.0,-38.0,-1703.0,86.0,303.0,369.0
-15.0,87.0,-3.0,-16.0,-2158.0,-49.0,293.0,257.0
-3.0,12.0,0.0,-2.0,-2512.0,-161.0,221.0,157.0
-12.0,8.0,7.0,8.0,-2716.0,-123.0,99.0,9.0
-5.0,-2.0,20.0,-24.0,-2860.0,84.0,-49.0,-51.0
2.0,-46.0,24.0,-71.0,-2806.0,228.0,-98.0,-19.0
-16.0,1.0,-5.0,-81.0,-3014.0,289.0,48.0,39.0
-6.0,-30.0,-35.0,-55.0,-3106.0,307.0,283.0,32.0
-2.0,1.0,-22.0,-36.0,-3380.0,283.0,238.0,-215.0
0.0,107.0,-48.0,-60.0,-3883.0,136.0,151.0,-460.0
-10.0,232.0,-50.0,-45.0,-4000.0,15.0,116.0,-692.0
-7.0,254.0,-11.0,-7.0,-3923.0,35.0,61.0,-940.0
-13.0,203.0,-11.0,-10.0,-3917.0,-22.0,119.0,-843.0
4.0,124.0,-1.0,-10.0,-4000.0,-50.0,126.0,-492.0
15.0,0.0,-15.0,15.0,-3754.0,-91.0,206.0,-234.0
-5.0,-46.0,15.0,11.0,-3148.0,-66.0,249.0,-96.0
9.0,-137.0,31.0,33.0,-2484.0,-84.0,238.0,-186.0
14.0,-260.0,0.0,-45.0,-1514.0,-109.0,203.0,-348.0
-14.0,-362.0,27.0,-111.0,-253.0,-12.0,134.0,-391.0
9.0,-258.0,18.0,-49.0,622.0,38.0,-22.0,-395.0
31.0,-94.0,30.0,-56.0,1352.0,191.0,-167.0,-378.0
6.0,-23.0,20.0,-25.0,2189.0,273.0,-184.0,-419.0
27.0,25.0,33.0,13.0,2085.0,311.0,-208.0,-362.0
21.0,8.0,39.0,22.0,1865.0,276.0,-117.0,-370.0
1.0,13.0,-4.0,55.0,2360.0,283.0,61.0,-334.0
-12.0,36.0,-11.0,77.0,3464.0,411.0,150.0,-215.0
-9.0,44.0,-10.0,128.0,4000.0,498.0,107.0,1.0
23.0,65.0,5.0,124.0,4000.0,586.0,84.0,548.0
3.0,52.0,-13.0,26.0,4000.0,522.0,155.0,881.0
-5.0,51.0,11.0,-21.0,4000.0,336.0,166.0,652.0
-25.0,28.0,27.0,-25.0,4000.0,189.0,130.0,50.0
-31.0,60.0,6.0,-49.0,4000.0,160.0,54.0,-419.0
-25.0,98.0,-2.0,-25.0,4000.0,155.0,-30.0,-540.0
-37.0,79.0,-5.0,-15.0,4000.0,158.0,-56.0,-345.0
27.0,155.0,18.0,-25.0,3916.0,155.0,-128.0,98.0
36.0,187.0,24.0,-11.0,4000.0,100.0,-200.0,499.0
-4.0,124.0,-2.0,-20.0,4000.0,26.0,-269.0,678.0
-16.0,38.0,-6.0,-29.0,4000.0,32.0,-320.0,635.0
-13.0,-5.0,-9.0,25.0,4000.0,71.0,-203.0,295.0
-27.0,-30.0,1.0,28.0,4000.0,93.0,-16.0,-206.0
-32.0,-34.0,24.0,34.0,4000.0,67.0,104.0,-496.0
-9.0,-20.0,8.0,64.0,4000.0,-2.0,123.0,-753.0
-23.0,-18.0,-26.0,54.0,4000.0,-51.0,183.0,-788.0
-28.0,-33.0,-39.0,85.0,3363.0,-59.0,303.0,-482.0
-17.0,-54.0,-28.0,325.0,2907.0,-43.0,352.0,-2.0
-37.0,-32.0,-32.0,691.0,2581.0,-62.0,291.0,357.0
-13.0,-53.0,-31.0,386.0,2320.0,-74.0,170.0,359.0
-18.0,-121.0,-53.0,-234.0,2386.0,1.0,93.0,274.0
-37.0,-57.0,-46.0,-486.0,2569.0,65.0,-65.0,302.0
-36.0,148.0,-20.0,-636.0,2189.0,32.0,-127.0,397.0
-59.0,187.0,-53.0,-568.0,1930.0,78.0,-95.0,397.0
-41.0,158.0,-19.0,-589.0,1409.0,-8.0,-200.0,491.0
-9.0,160.0,22.0,-514.0,491.0,-58.0,-355.0,680.0
-12.0,108.0,3.0,-206.0,-650.0,-12.0,-449.0,817.0
-31.0,34.0,9.0,3.0,-1820.0,-125.0,-316.0,1012.0
-6.0,-154.0,19.0,93.0,-2316.0,-169.0,-150.0,1334.0
-35.0,-383.0,14.0,132.0,-2859.0,-109.0,-182.0,1586.0
-18.0,-333.0,6.0,154.0,-2887.0,-27.0,-213.0,1598.0
0.0,-98.0,6.0,84.0,-2289.0,-76.0,-50.0,1663.0
-6.0,-24.0,5.0,87.0,-2140.0,-82.0,155.0,1527.0
10.0,8.0,31.0,6.0,-2289.0,-57.0,151.0,890.0
-6.0,-11.0,26.0,-28.0,-2316.0,-39.0,21.0,486.0
25.0,24.0,9.0,-28.0,-2277.0,45.0,-11.0,479.0
24.0,62.0,28.0,-2.0,-2318.0,32.0,-100.0,536.0
11.0,58.0,18.0,47.0,-2627.0,-6.0,-194.0,556.0
2.0,74.0,0.0,10.0,-3604.0,53.0,-112.0,470.0
10.0,90.0,13.0,128.0,-4000.0,90.0,-5.0,312.0
4.0,89.0,40.0,156.0,-4000.0,18.0,-29.0,154.0
2.0,51.0,-3.0,77.0,-4000.0,5.0,-169.0,-145.0
-5.0,53.0,-15.0,55.0,-4000.0,-27.0,-342.0,-492.0
7.0,73.0,12.0,77.0,-4000.0,-89.0,-565.0,-750.0
22.0,75.0,12.0,40.0,-3963.0,-35.0,-713.0,-870.0
6.0,69.0,-6.0,-37.0,-3172.0,5.0,-781.0,-883.0
8.0,63.0,-25.0,-42.0,-2550.0,-3.0,-846.0,-818.0
-2.0,58.0,8.0,-21.0,-2419.0,-9.0,-876.0,-675.0
-1.0,3.0,16.0,-34.0,-2409.0,-63.0,-1006.0,-543.0
-38.0,-98.0,-7.0,-53.0,-2354.0,-151.0,-1234.0,-608.0
-21.0,-130.0,-11.0,-21.0,-1998.0,-182.0,-1332.0,-990.0
-8.0,-49.0,8.0,-37.0,-1398.0,-226.0,-1245.0,-1245.0
-26.0,7.0,10.0,-93.0,-977.0,-275.0,-982.0,-1279.0
-22.0,86.0,-17.0,-69.0,-712.0,-287.0,-733.0,-1326.0
-23.0,189.0,-22.0,24.0,-781.0,-276.0,-556.0,-1316.0
-24.0,24.0,-21.0,28.0,-751.0,-243.0,-412.0,-1213.0
-35.0,-133.0,-49.0,-4.0,-593.0,-206.0,-304.0,-996.0
-5.0,-94.0,-31.0,72.0,-245.0,-205.0,-227.0,-693.0
-18.0,-97.0,-5.0,132.0,-270.0,-253.0,-184.0,-472.0
-9.0,-51.0,-37.0,115.0,106.0,-293.0,-212.0,-278.0
2.0,-106.0,-20.0,9.0,411.0,-318.0,-279.0,-148.0
5.0,-26.0,-34.0,-17.0,142.0,-240.0,-130.0,-79.0
-3.0,65.0,-31.0,-59.0,293.0,-167.0,158.0,-84.0
-9.0,-44.0,-24.0,-85.0,-222.0,-161.0,433.0,-80.0
25.0,8.0,-40.0,-61.0,-712.0,-152.0,687.0,-3.0
11.0,-15.0,17.0,-92.0,-624.0,-167.0,877.0,33.0
14.0,-30.0,11.0,-74.0,-818.0,-161.0,1060.0,82.0
1.0,-33.0,-21.0,-90.0,-1263.0,-146.0,1190.0,199.0
-7.0,4.0,-22.0,-59.0,-1820.0,-127.0,1201.0,319.0
9.0,28.0,15.0,0.0,-2105.0,-85.0,1208.0,387.0
8.0,11.0,12.0,-44.0,-2092.0,-56.0,1214.0,279.0
20.0,74.0,10.0,-26.0,-1978.0,-13.0,1098.0,195.0
13.0,111.0,23.0,-21.0,-1756.0,22.0,903.0,243.0
28.0,131.0,-12.0,0.0,-1442.0,0.0,749.0,222.0
11.0,66.0,10.0,-3.0,-934.0,-18.0,563.0,145.0
5.0,84.0,1.0,6.0,-139.0,-8.0,416.0,42.0
13.0,45.0,3.0,60.0,542.0,-44.0,412.0,46.0
16.0,44.0,-1.0,109.0,1059.0,-48.0,407.0,54.0
17.0,48.0,2.0,161.0,1248.0,-65.0,267.0,-63.0
-4.0,-4.0,6.0,107.0,1213.0,-37.0,97.0,-199.0
12.0,-7.0,-11.0,64.0,1391.0,-6.0,-70.0,-305.0
-18.0,-3.0,1.0,4.0,1539.0,79.0,-208.0,-362.0
-19.0,3.0,-11.0,-32.0,1710.0,254.0,-241.0,-222.0
-11.0,3.0,-5.0,-37.0,1644.0,361.0,-212.0,-95.0
-12.0,-5.0,2.0,-46.0,1213.0,466.0,-123.0,-80.0
2.0,-45.0,19.0,-20.0,994.0,520.0,72.0,137.0
17.0,-58.0,-2.0,-42.0,902.0,463.0,352.0,373.0
-10.0,-71.0,0.0,-86.0,758.0,419.0,481.0,515.0
-19.0,-18.0,1.0,-155.0,812.0,433.0,376.0,591.0
-8.0,5.0,-10.0,-177.0,570.0,254.0,164.0,634.0
-35.0,-6.0,4.0,-227.0,415.0,7.0,-151.0,615.0
-26.0,3.0,12.0,-202.0,766.0,-129.0,-436.0,536.0
-36.0,31.0,-1.0,-153.0,1193.0,-226.0,-428.0,547.0
-43.0,57.0,-44.0,-107.0,1091.0,-261.0,-473.0,515.0
-54.0,33.0,-10.0,18.0,680.0,-266.0,-729.0,408.0
-39.0,68.0,-30.0,42.0,870.0,-232.0,-855.0,341.0
-21.0,105.0,-14.0,127.0,961.0,-167.0,-941.0,369.0
-23.0,79.0,2.0,182.0,920.0,-67.0,-1043.0,322.0
-1.0,-30.0,-20.0,174.0,1391.0,-5.0,-1096.0,247.0
-23.0,-135.0,-21.0,155.0,1574.0,17.0,-1201.0,206.0
-40.0,-194.0,-29.0,127.0,1970.0,-6.0,-1233.0,108.0
-61.0,-220.0,-20.0,142.0,2378.0,57.0,-1246.0,76.0
-28.0,-60.0,-25.0,347.0,2124.0,197.0,-1173.0,112.0
-13.0,99.0,5.0,581.0,1865.0,76.0,-1011.0,44.0
-33.0,83.0,-2.0,150.0,1657.0,2.0,-1031.0,-11.0
-2.0,94.0,-9.0,-277.0,1800.0,-30.0,-966.0,-11.0
4.0,41.0,-5.0,-445.0,1800.0,-130.0,-781.0,-117.0
-25.0,-45.0,-26.0,-584.0,1378.0,-146.0,-678.0,-170.0
-21.0,-2.0,21.0,-478.0,1032.0,-162.0,-475.0,-217.0
-6.0,168.0,4.0,-442.0,874.0,-97.0,-102.0,-283.0
-27.0,233.0,-33.0,-319.0,961.0,-26.0,188.0,-321.0
-21.0,-19.0,-15.0,-101.0,988.0,26.0,391.0,-378.0
-5.0,-177.0,2.0,16.0,758.0,41.0,404.0,-431.0
8.0,-346.0,8.0,22.0,509.0,78.0,413.0,-472.0
12.0,-436.0,11.0,-23.0,397.0,119.0,481.0,-443.0
-2.0,-248.0,17.0,25.0,335.0,126.0,297.0,-518.0
29.0,-247.0,-22.0,44.0,224.0,104.0,137.0,-620.0
7.0,-212.0,-19.0,30.0,219.0,67.0,126.0,-736.0
-8.0,99.0,-5.0,54.0,235.0,97.0,137.0,-791.0
-32.0,263.0,-22.0,106.0,461.0,91.0,103.0,-753.0
-60.0,217.0,-17.0,122.0,627.0,61.0,-16.0,-786.0
-40.0,160.0,-2.0,162.0,365.0,35.0,-134.0,-796.0
-39.0,63.0,-8.0,112.0,50.0,-6.0,-192.0,-788.0
-12.0,19.0,-22.0,59.0,-385.0,-25.0,-154.0,-753.0
-16.0,43.0,3.0,99.0,-523.0,-72.0,37.0,-753.0
6.0,53.0,10.0,48.0,-621.0,-114.0,278.0,-740.0
7.0,116.0,11.0,22.0,-942.0,-128.0,303.0,-644.0
-1.0,187.0,-29.0,-4.0,-812.0,-179.0,394.0,-487.0
9.0,288.0,-40.0,-8.0,-588.0,-194.0,608.0,-362.0
1.0,311.0,0.0,63.0,-258.0,-123.0,637.0,-350.0
-19.0,104.0,-16.0,68.0,-113.0,-31.0,619.0,-390.0
-20.0,87.0,-21.0,43.0,-16.0,134.0,597.0,-431.0
1.0,-3.0,-29.0,44.0,218.0,262.0,603.0,-514.0
-32.0,-393.0,-3.0,22.0,473.0,227.0,665.0,-572.0
-4.0,-437.0,16.0,66.0,692.0,197.0,795.0,-496.0
29.0,-247.0,23.0,52.0,1118.0,183.0,824.0,-350.0
-12.0,19.0,18.0,-11.0,1824.0,126.0,779.0,-157.0
-33.0,279.0,-3.0,-36.0,2241.0,113.0,753.0,88.0
7.0,240.0,26.0,-87.0,2177.0,135.0,665.0,239.0
8.0,127.0,-5.0,-93.0,1853.0,111.0,683.0,302.0
-13.0,43.0,-13.0,-90.0,1907.0,107.0,702.0,277.0
-13.0,33.0,-36.0,-49.0,1865.0,144.0,693.0,226.0
-36.0,33.0,-24.0,-25.0,1918.0,162.0,707.0,229.0
-23.0,23.0,11.0,-8.0,1930.0,177.0,700.0,253.0
1.0,51.0,-17.0,4.0,1722.0,163.0,587.0,276.0
-15.0,4.0,-39.0,-45.0,1666.0,177.0,464.0,379.0
-36.0,-42.0,-39.0,-38.0,1580.0,166.0,380.0,589.0
-40.0,-98.0,-17.0,-51.0,1629.0,170.0,339.0,686.0
-28.0,-98.0,-49.0,-70.0,1443.0,209.0,380.0,725.0
12.0,-50.0,-34.0,-94.0,1059.0,184.0,350.0,735.0
32.0,11.0,2.0,-171.0,766.0,178.0,368.0,715.0
12.0,19.0,-28.0,-178.0,794.0,208.0,250.0,686.0
10.0,-7.0,-21.0,-237.0,1006.0,233.0,67.0,569.0
4.0,25.0,-14.0,-228.0,1340.0,207.0,41.0,434.0
1.0,13.0,-11.0,-149.0,1639.0,191.0,-94.0,358.0
-16.0,45.0,14.0,-30.0,1644.0,191.0,-162.0,361.0
-29.0,17.0,-13.0,72.0,1920.0,170.0,-137.0,426.0
-37.0,-74.0,-51.0,38.0,2378.0,124.0,-187.0,434.0
-4.0,-67.0,-28.0,74.0,2189.0,88.0,-186.0,474.0
7.0,-53.0,-20.0,123.0,1518.0,38.0,-184.0,528.0
-24.0,-37.0,-1.0,94.0,1263.0,-24.0,-258.0,499.0
2.0,45.0,-8.0,69.0,1128.0,-110.0,-159.0,556.0
-21.0,58.0,-1.0,44.0,865.0,-25.0,-40.0,629.0
-17.0,49.0,30.0,-30.0,419.0,111.0,2.0,676.0
-24.0,22.0,28.0,-1.0,123.0,115.0,47.0,605.0
-13.0,-8.0,18.0,23.0,-411.0,152.0,27.0,597.0
-4.0,-18.0,24.0,-42.0,-1163.0,140.0,114.0,601.0
-17.0,-118.0,11.0,-26.0,-1433.0,112.0,124.0,454.0
33.0,-65.0,17.0,24.0,-1528.0,65.0,152.0,432.0
20.0,39.0,42.0,87.0,-1463.0,54.0,218.0,485.0
13.0,105.0,18.0,234.0,-1313.0,61.0,223.0,556.0
7.0,106.0,5.0,616.0,-1012.0,38.0,311.0,719.0
24.0,-22.0,5.0,564.0,-877.0,21.0,311.0,798.0
13.0,55.0,5.0,105.0,-1072.0,76.0,241.0,784.0
10.0,68.0,19.0,-51.0,-986.0,131.0,127.0,788.0
27.0,5.0,7.0,-226.0,-681.0,146.0,40.0,825.0
5.0,32.0,-4.0,-267.0,-744.0,137.0,2.0,808.0
-5.0,-4.0,31.0,-326.0,-930.0,73.0,-98.0,629.0
-30.0,13.0,35.0,-397.0,-987.0,105.0,-121.0,503.0
-23.0,69.0,0.0,-234.0,-769.0,47.0,-139.0,514.0
-23.0,87.0,-4.0,-107.0,-447.0,31.0,-178.0,555.0
-19.0,41.0,-23.0,-103.0,-577.0,36.0,-89.0,522.0
-37.0,4.0,-27.0,-145.0,-486.0,-52.0,-273.0,535.0
-45.0,-75.0,-14.0,-91.0,-279.0,-42.0,-424.0,725.0
-49.0,-88.0,-28.0,-108.0,-421.0,-76.0,-415.0,677.0
-46.0,-88.0,-56.0,-125.0,-385.0,24.0,-327.0,629.0
-24.0,-85.0,-48.0,-118.0,-413.0,103.0,-241.0,556.0
-39.0,-55.0,-25.0,-50.0,-451.0,119.0,-267.0,369.0
-18.0,-89.0,-78.0,-56.0,-664.0,228.0,-174.0,387.0
-25.0,-149.0,-64.0,-76.0,-993.0,188.0,-145.0,296.0
-14.0,-181.0,-29.0,32.0,-942.0,97.0,-142.0,190.0
3.0,-230.0,-31.0,77.0,-1190.0,18.0,-195.0,126.0
15.0,-230.0,24.0,56.0,-1463.0,-29.0,-244.0,148.0
28.0,-30.0,10.0,35.0,-1520.0,-71.0,-246.0,165.0
12.0,63.0,30.0,40.0,-1944.0,-116.0,-240.0,296.0
4.0,77.0,19.0,4.0,-2318.0,-189.0,-217.0,387.0
-3.0,95.0,31.0,19.0,-2277.0,-211.0,-282.0,184.0
-20.0,-5.0,41.0,-11.0,-2160.0,-216.0,-306.0,236.0
-5.0,-47.0,5.0,-10.0,-2252.0,-289.0,-252.0,355.0
36.0,17.0,48.0,59.0,-2340.0,-275.0,-182.0,302.0
34.0,48.0,30.0,77.0,-2344.0,-297.0,-133.0,302.0
34.0,87.0,56.0,122.0,-2140.0,-384.0,-37.0,236.0
23.0,113.0,34.0,81.0,-2122.0,-411.0,139.0,184.0
26.0,127.0,18.0,69.0,-2010.0,-394.0,220.0,144.0
1.0,128.0,21.0,74.0,-1552.0,-375.0,236.0,112.0
-3.0,85.0,15.0,80.0,-1520.0,-434.0,303.0,70.0
20.0,93.0,8.0,28.0,-1247.0,-463.0,283.0,-3.0
-9.0,73.0,-22.0,-45.0,-795.0,-459.0,262.0,-74.0
-4.0,102.0,14.0,-148.0,-1234.0,-449.0,343.0,-166.0
12.0,91.0,-20.0,-293.0,-1653.0,-414.0,349.0,-162.0
-3.0,-6.0,-26.0,-326.0,-1439.0,-393.0,391.0,-207.0
-2.0,-1.0,-32.0,-305.0,-1137.0,-317.0,399.0,-260.0
-11.0,16.0,-22.0,-218.0,-770.0,-239.0,365.0,-278.0
-42.0,116.0,-17.0,-93.0,-669.0,-266.0,441.0,-333.0
-62.0,266.0,-37.0,-24.0,-795.0,-261.0,441.0,-411.0
-43.0,282.0,-4.0,39.0,-775.0,-280.0,274.0,-479.0
-28.0,200.0,7.0,152.0,-1044.0,-297.0,238.0,-540.0
-16.0,-22.0,-14.0,102.0,-1398.0,-340.0,274.0,-608.0
-28.0,-130.0,-18.0,48.0,-1626.0,-308.0,243.0,-562.0
-61.0,-101.0,-17.0,116.0,-1737.0,-279.0,425.0,-553.0
-69.0,-244.0,-43.0,81.0,-1463.0,-314.0,464.0,-545.0
-45.0,-440.0,-18.0,90.0,-869.0,-240.0,341.0,-447.0
2.0,-488.0,-14.0,156.0,-383.0,-195.0,219.0,-247.0
10.0,-133.0,-17.0,129.0,-270.0,-189.0,114.0,-72.0
17.0,196.0,-18.0,120.0,-37.0,-246.0,119.0,-62.0
12.0,184.0,-18.0,390.0,374.0,-283.0,127.0,-52.0
4.0,238.0,-25.0,693.0,415.0,-188.0,219.0,-95.0
7.0,106.0,-65.0,453.0,337.0,-163.0,220.0,-73.0
-22.0,29.0,-45.0,-22.0,474.0,-157.0,303.0,15.0
-5.0,37.0,-50.0,-248.0,562.0,-122.0,365.0,-35.0
-6.0,-38.0,-36.0,-393.0,888.0,-97.0,311.0,-124.0
2.0,-6.0,19.0,-326.0,961.0,15.0,376.0,-215.0
33.0,55.0,65.0,-316.0,778.0,99.0,384.0,-235.0
17.0,83.0,36.0,-336.0,896.0,197.0,413.0,-232.0
17.0,49.0,-9.0,-133.0,1118.0,307.0,394.0,-254.0
37.0,91.0,-1.0,5.0,1213.0,441.0,380.0,-305.0
41.0,58.0,-4.0,4.0,1352.0,628.0,417.0,-386.0
24.0,-47.0,27.0,33.0,1601.0,803.0,356.0,-401.0
-13.0,-125.0,2.0,72.0,1352.0,991.0,343.0,-350.0
-38.0,-122.0,-22.0,122.0,1012.0,1033.0,367.0,-323.0
-17.0,-52.0,-1.0,102.0,1213.0,1018.0,439.0,-362.0
-15.0,-82.0,-8.0,3.0,1213.0,1069.0,399.0,-382.0
-19.0,-118.0,19.0,-59.0,1075.0,994.0,243.0,-446.0
3.0,-213.0,-11.0,-163.0,1213.0,967.0,107.0,-449.0
-17.0,-253.0,-12.0,-155.0,1148.0,1006.0,2.0,-404.0
-42.0,-114.0,34.0,-151.0,1394.0,1003.0,6.0,-339.0
3.0,-179.0,42.0,-115.0,1388.0,994.0,78.0,-240.0
20.0,-176.0,80.0,-47.0,1207.0,994.0,225.0,-206.0
24.0,-86.0,72.0,-26.0,1344.0,1077.0,299.0,-183.0
23.0,1.0,39.0,69.0,1051.0,1056.0,209.0,-168.0
12.0,120.0,28.0,93.0,817.0,1114.0,105.0,-164.0
17.0,103.0,53.0,62.0,896.0,1214.0,8.0,-81.0
11.0,-17.0,67.0,-53.0,683.0,1182.0,-36.0,-23.0
17.0,-102.0,45.0,-102.0,393.0,1092.0,-8.0,-4.0
-8.0,-22.0,68.0,-121.0,457.0,961.0,44.0,30.0
-27.0,30.0,66.0,-134.0,428.0,880.0,37.0,30.0
-24.0,116.0,80.0,-163.0,56.0,860.0,9.0,5.0
-24.0,197.0,91.0,-169.0,176.0,858.0,43.0,8.0
-28.0,221.0,94.0,-103.0,607.0,823.0,24.0,37.0
-17.0,200.0,81.0,-93.0,537.0,746.0,-84.0,-23.0
-25.0,173.0,27.0,-82.0,456.0,628.0,-233.0,-105.0
-48.0,193.0,48.0,-107.0,692.0,486.0,-314.0,-124.0
-10.0,189.0,35.0,-116.0,917.0,396.0,-346.0,-188.0
-17.0,147.0,26.0,-45.0,1213.0,315.0,-317.0,-210.0
-14.0,79.0,-10.0,-37.0,1118.0,207.0,-235.0,-207.0
8.0,99.0,-61.0,-130.0,635.0,115.0,-228.0,-257.0
-41.0,138.0,-102.0,-127.0,706.0,110.0,-310.0,-240.0
-56.0,278.0,-96.0,-52.0,672.0,138.0,-352.0,-166.0
-58.0,347.0,-89.0,73.0,575.0,162.0,-306.0,-138.0
-50.0,200.0,-97.0,46.0,420.0,88.0,-282.0,-146.0
-44.0,53.0,-97.0,24.0,37.0,-106.0,-161.0,-154.0
-60.0,-77.0,-129.0,95.0,-59.0,-228.0,-7.0,-140.0
-35.0,-196.0,-131.0,83.0,-101.0,-385.0,22.0,-79.0
-29.0,-301.0,-111.0,155.0,-211.0,-480.0,-55.0,-65.0
-25.0,-444.0,-83.0,134.0,-299.0,-516.0,-114.0,-60.0
-16.0,-440.0,-106.0,106.0,-285.0,-541.0,-48.0,-39.0
-25.0,-241.0,-129.0,101.0,-586.0,-540.0,-2.0,-56.0
-38.0,-131.0,-125.0,132.0,-332.0,-630.0,-48.0,-40.0
-52.0,-1.0,-98.0,126.0,99.0,-722.0,-109.0,-90.0
-28.0,248.0,-76.0,125.0,49.0,-790.0,-188.0,-128.0
-21.0,262.0,-97.0,123.0,183.0,-802.0,-332.0,-146.0
7.0,140.0,-79.0,-11.0,101.0,-862.0,-412.0,-158.0
5.0,-80.0,-56.0,-61.0,-172.0,-861.0,-363.0,-76.0
-12.0,-282.0,-47.0,-75.0,-456.0,-802.0,-244.0,-26.0
17.0,-300.0,-38.0,-45.0,-531.0,-741.0,-108.0,81.0
-8.0,-211.0,-22.0,-36.0,-653.0,-651.0,-83.0,169.0
0.0,1.0,-24.0,-25.0,-744.0,-657.0,-22.0,189.0
-9.0,117.0,-20.0,16.0,-788.0,-607.0,85.0,147.0
16.0,140.0,-8.0,22.0,-990.0,-615.0,-9.0,108.0
39.0,53.0,-11.0,18.0,-1012.0,-575.0,-91.0,184.0
27.0,75.0,13.0,6.0,-934.0,-485.0,20.0,190.0
45.0,173.0,-21.0,30.0,-853.0,-472.0,-12.0,125.0
17.0,128.0,2.0,0.0,-785.0,-440.0,-407.0,82.0
45.0,77.0,60.0,5.0,-818.0,-362.0,-906.0,76.0
66.0,-18.0,43.0,16.0,-643.0,-371.0,-1169.0,6.0
50.0,2.0,35.0,10.0,-460.0,-407.0,-1006.0,-92.0
21.0,20.0,26.0,20.0,-863.0,-379.0,-601.0,-118.0
-16.0,-15.0,19.0,2.0,-785.0,-378.0,-445.0,-121.0
-25.0,25.0,17.0,-18.0,-425.0,-293.0,-485.0,-120.0
-15.0,52.0,10.0,-51.0,-531.0,-247.0,-516.0,-101.0
-12.0,64.0,-11.0,-74.0,-200.0,-167.0,-326.0,-101.0
-45.0,40.0,8.0,-78.0,199.0,-41.0,43.0,-134.0
-86.0,41.0,15.0,-105.0,280.0,-5.0,170.0,-140.0
-76.0,75.0,20.0,-75.0,480.0,-13.0,101.0,-134.0
-19.0,64.0,19.0,-54.0,553.0,-29.0,-152.0,-113.0
-1.0,69.0,11.0,-30.0,713.0,-58.0,-475.0,-163.0
-10.0,135.0,40.0,-39.0,831.0,-92.0,-532.0,-168.0
-12.0,186.0,50.0,-57.0,880.0,-124.0,-450.0,-191.0
-6.0,105.0,46.0,-24.0,967.0,-122.0,-493.0,-210.0
7.0,-22.0,39.0,27.0,933.0,-76.0,-571.0,-158.0
21.0,-106.0,19.0,102.0,1018.0,-50.0,-433.0,-136.0
16.0,-244.0,15.0,92.0,1091.0,-25.0,-65.0,-116.0
25.0,-362.0,23.0,77.0,1012.0,-52.0,384.0,-118.0
27.0,-351.0,46.0,54.0,902.0,-115.0,597.0,-95.0
18.0,-161.0,26.0,34.0,811.0,-172.0,529.0,-105.0
0.0,-55.0,34.0,-21.0,597.0,-68.0,268.0,-111.0
-14.0,-96.0,24.0,-78.0,537.0,58.0,34.0,-105.0
-9.0,-83.0,13.0,-201.0,589.0,79.0,238.0,-81.0
-24.0,-30.0,29.0,-336.0,450.0,127.0,608.0,-18.0
-24.0,-15.0,24.0,-89.0,621.0,180.0,897.0,7.0
-17.0,21.0,16.0,27.0,758.0,176.0,1149.0,44.0
-7.0,89.0,-33.0,-95.0,562.0,90.0,1010.0,134.0
-16.0,113.0,-12.0,-128.0,556.0,32.0,485.0,156.0
-12.0,90.0,-30.0,-141.0,961.0,-46.0,149.0,107.0
24.0,95.0,-37.0,-57.0,692.0,-118.0,47.0,66.0
17.0,128.0,-30.0,-83.0,243.0,-49.0,60.0,33.0
-5.0,-2.0,-14.0,-61.0,789.0,22.0,219.0,64.0
2.0,-82.0,75.0,-19.0,654.0,138.0,348.0,106.0
29.0,-72.0,61.0,10.0,544.0,261.0,321.0,100.0
0.0,-118.0,27.0,95.0,811.0,248.0,178.0,130.0
-26.0,-147.0,8.0,51.0,432.0,232.0,132.0,116.0
-29.0,-13.0,-16.0,111.0,627.0,194.0,183.0,100.0
-24.0,30.0,-42.0,106.0,758.0,210.0,32.0,111.0
-11.0,0.0,-33.0,80.0,432.0,189.0,-233.0,83.0
-6.0,33.0,-26.0,154.0,496.0,134.0,-194.0,79.0
-9.0,60.0,-38.0,106.0,275.0,130.0,6.0,36.0
-25.0,95.0,-36.0,-5.0,261.0,82.0,172.0,13.0
-12.0,54.0,-31.0,-30.0,188.0,48.0,346.0,56.0
-12.0,39.0,-31.0,-38.0,-30.0,84.0,400.0,91.0
-27.0,-2.0,2.0,-48.0,179.0,136.0,311.0,50.0
1.0,59.0,43.0,1.0,-86.0,183.0,261.0,-7.0
4.0,83.0,20.0,-35.0,-223.0,220.0,441.0,-26.0
-16.0,68.0,20.0,-9.0,-95.0,213.0,685.0,-37.0
-29.0,18.0,11.0,24.0,-220.0,241.0,673.0,-34.0
-18.0,-48.0,-4.0,20.0,-229.0,246.0,365.0,30.0
9.0,30.0,2.0,62.0,-402.0,160.0,31.0,108.0
-8.0,40.0,-20.0,81.0,-652.0,81.0,-152.0,112.0
15.0,112.0,-24.0,75.0,-652.0,25.0,-199.0,117.0
8.0,41.0,-34.0,125.0,-392.0,82.0,-133.0,130.0
23.0,-67.0,-35.0,447.0,-126.0,160.0,-175.0,169.0
11.0,-23.0,-7.0,419.0,-256.0,246.0,-221.0,174.0
16.0,138.0,15.0,-153.0,-58.0,431.0,-167.0,128.0
21.0,352.0,51.0,-458.0,270.0,441.0,-79.0,103.0
-32.0,404.0,42.0,-546.0,596.0,347.0,-78.0,147.0
-19.0,313.0,20.0,-523.0,766.0,237.0,-167.0,165.0
-21.0,52.0,-2.0,-576.0,748.0,115.0,120.0,132.0
-34.0,-70.0,-10.0,-571.0,701.0,39.0,359.0,141.0
-40.0,-225.0,-6.0,-285.0,235.0,-30.0,286.0,216.0
-9.0,-432.0,-40.0,-33.0,145.0,-67.0,208.0,286.0
6.0,-336.0,19.0,197.0,-58.0,-102.0,16.0,239.0
8.0,-154.0,37.0,149.0,-321.0,-177.0,-137.0,203.0
0.0,-40.0,-33.0,133.0,-64.0,-266.0,-349.0,225.0
-27.0,-41.0,-46.0,158.0,-195.0,-348.0,-473.0,266.0
-25.0,-15.0,-31.0,103.0,-446.0,-408.0,-359.0,261.0
-40.0,5.0,-38.0,108.0,-634.0,-384.0,229.0,291.0
-51.0,-40.0,-63.0,122.0,-673.0,-331.0,1013.0,210.0
-39.0,-26.0,-39.0,107.0,-838.0,-312.0,856.0,69.0
-36.0,-33.0,-13.0,1.0,-942.0,-273.0,576.0,13.0
-35.0,19.0,-26.0,-87.0,-1052.0,-313.0,563.0,-31.0
-35.0,12.0,-26.0,-149.0,-1534.0,-378.0,470.0,-38.0
-24.0,0.0,-21.0,-234.0,-1504.0,-423.0,619.0,-92.0
-7.0,13.0,-18.0,-198.0,-1185.0,-435.0,642.0,-105.0
-15.0,46.0,-1.0,-15.0,-1198.0,-459.0,571.0,-138.0
-5.0,10.0,11.0,56.0,-1137.0,-489.0,356.0,-159.0
3.0,-38.0,15.0,134.0,-838.0,-489.0,113.0,-170.0
-8.0,-25.0,-5.0,174.0,-1116.0,-485.0,-68.0,-191.0
-53.0,-49.0,-20.0,209.0,-1375.0,-373.0,-104.0,-187.0
-46.0,11.0,-7.0,245.0,-818.0,-375.0,-102.0,-265.0
-1.0,29.0,-13.0,150.0,-356.0,-414.0,-226.0,-256.0
17.0,37.0,-23.0,15.0,-596.0,-555.0,-308.0,-216.0
16.0,18.0,-26.0,-37.0,-942.0,-668.0,-412.0,-232.0
-13.0,-32.0,30.0,57.0,-523.0,-594.0,-326.0,-195.0
-11.0,-78.0,36.0,61.0,310.0,-541.0,-355.0,-117.0
2.0,-111.0,20.0,83.0,1148.0,-419.0,-420.0,-104.0
15.0,-120.0,35.0,44.0,1538.0,-297.0,-449.0,-177.0
23.0,-51.0,4.0,-72.0,1601.0,-137.0,-585.0,-161.0
-18.0,66.0,17.0,-114.0,1051.0,-64.0,-533.0,-85.0
-2.0,152.0,6.0,-84.0,758.0,-167.0,-485.0,-47.0
-13.0,170.0,12.0,-38.0,748.0,-214.0,-446.0,35.0
-12.0,160.0,29.0,-90.0,683.0,-207.0,-433.0,69.0
7.0,186.0,26.0,-35.0,854.0,-255.0,-527.0,-16.0
-8.0,167.0,4.0,129.0,459.0,-275.0,-615.0,-18.0
2.0,94.0,11.0,223.0,515.0,-287.0,-789.0,21.0
29.0,71.0,6.0,125.0,424.0,-275.0,-1063.0,87.0
17.0,69.0,-11.0,31.0,167.0,-162.0,-1264.0,157.0
-17.0,51.0,9.0,73.0,438.0,-65.0,-1312.0,140.0
2.0,34.0,13.0,16.0,373.0,35.0,-1382.0,88.0
-8.0,17.0,-10.0,-34.0,532.0,42.0,-1527.0,94.0
-4.0,2.0,-33.0,-98.0,562.0,24.0,-1702.0,131.0
-12.0,-33.0,-11.0,-127.0,232.0,-20.0,-1716.0,105.0
-18.0,-29.0,-40.0,-116.0,237.0,-238.0,-1653.0,35.0
-13.0,-30.0,-12.0,-155.0,137.0,-394.0,-1570.0,-18.0
-29.0,-54.0,-2.0,-124.0,130.0,-279.0,-1397.0,76.0
-9.0,-38.0,-8.0,-149.0,-135.0,-204.0,-1228.0,-31.0
-24.0,-35.0,-14.0,-88.0,-153.0,-139.0,-933.0,-179.0
-34.0,-5.0,-36.0,51.0,-149.0,225.0,-685.0,35.0
-17.0,30.0,11.0,96.0,-389.0,551.0,-534.0,355.0
-20.0,-2.0,-6.0,90.0,-228.0,758.0,-383.0,413.0
-25.0,-37.0,-18.0,41.0,-309.0,713.0,-287.0,154.0
-38.0,-23.0,2.0,40.0,-10.0,506.0,-182.0,161.0
-23.0,-28.0,-20.0,-141.0,1.0,335.0,-32.0,290.0
-23.0,-53.0,-48.0,-381.0,-181.0,191.0,223.0,238.0
-20.0,-35.0,-56.0,-98.0,-222.0,234.0,533.0,273.0
-28.0,-29.0,-16.0,-45.0,80.0,286.0,485.0,214.0
-34.0,-50.0,-23.0,-206.0,419.0,259.0,394.0,213.0
6.0,-55.0,-23.0,-114.0,273.0,225.0,571.0,283.0
-1.0,-16.0,-57.0,-226.0,758.0,283.0,693.0,304.0
20.0,-22.0,-79.0,-126.0,655.0,283.0,637.0,308.0
0.0,-46.0,-48.0,-104.0,635.0,349.0,608.0,302.0
-19.0,-28.0,-54.0,-170.0,627.0,439.0,622.0,318.0
-20.0,-26.0,-40.0,-118.0,318.0,525.0,551.0,247.0
-39.0,-11.0,16.0,65.0,542.0,620.0,576.0,148.0
-11.0,30.0,36.0,199.0,480.0,563.0,669.0,131.0
-1.0,31.0,7.0,164.0,503.0,541.0,723.0,108.0
-21.0,27.0,5.0,174.0,438.0,479.0,734.0,33.0
-4.0,4.0,2.0,81.0,440.0,326.0,702.0,-37.0
27.0,-23.0,-6.0,103.0,444.0,185.0,748.0,-113.0
6.0,0.0,20.0,308.0,562.0,172.0,793.0,-182.0
18.0,106.0,31.0,524.0,493.0,282.0,759.0,-209.0
12.0,256.0,27.0,199.0,209.0,348.0,791.0,-189.0
3.0,280.0,24.0,-271.0,228.0,412.0,759.0,-137.0
42.0,235.0,23.0,-393.0,17.0,525.0,683.0,-27.0
21.0,180.0,20.0,-462.0,-163.0,570.0,610.0,-86.0
0.0,-122.0,24.0,-362.0,-506.0,445.0,504.0,-142.0
25.0,-346.0,32.0,-306.0,-681.0,341.0,494.0,-49.0
68.0,-505.0,16.0,-102.0,-928.0,358.0,532.0,-203.0
2.0,-618.0,-14.0,126.0,-1006.0,393.0,571.0,-362.0
-20.0,-432.0,3.0,187.0,-1250.0,455.0,420.0,-435.0
3.0,-261.0,-10.0,164.0,-1528.0,619.0,407.0,-511.0
-87.0,99.0,-17.0,105.0,-1528.0,758.0,449.0,-431.0
-102.0,286.0,6.0,115.0,-1711.0,619.0,421.0,-427.0
-59.0,95.0,3.0,152.0,-1234.0,376.0,514.0,-620.0
6.0,-59.0,8.0,138.0,-376.0,195.0,506.0,-781.0
-8.0,-104.0,-15.0,10.0,375.0,64.0,416.0,-753.0
-35.0,-237.0,-7.0,-71.0,1466.0,39.0,366.0,-572.0
-4.0,-143.0,34.0,-96.0,2581.0,23.0,359.0,-508.0
-28.0,49.0,34.0,-152.0,3558.0,-2.0,404.0,-572.0
-4.0,-44.0,9.0,-154.0,4000.0,-43.0,475.0,-366.0
-5.0,126.0,-3.0,-96.0,4000.0,-81.0,425.0,-46.0
8.0,193.0,-11.0,-152.0,4000.0,-50.0,394.0,226.0
21.0,224.0,7.0,-68.0,3541.0,-19.0,332.0,212.0
-5.0,217.0,24.0,56.0,2374.0,36.0,391.0,296.0
13.0,150.0,12.0,75.0,1352.0,29.0,376.0,389.0
14.0,227.0,-1.0,138.0,-26.0,-58.0,143.0,312.0
-17.0,132.0,-28.0,142.0,-1398.0,-23.0,183.0,465.0
-18.0,111.0,15.0,139.0,-2822.0,-51.0,339.0,472.0
-1.0,152.0,29.0,56.0,-4000.0,-94.0,276.0,450.0
-13.0,135.0,3.0,-2.0,-4000.0,-65.0,194.0,499.0
-2.0,200.0,-4.0,-97.0,-4000.0,-101.0,180.0,526.0
-3.0,187.0,-5.0,-92.0,-4000.0,-136.0,205.0,536.0
6.0,105.0,9.0,-75.0,-4000.0,-152.0,246.0,409.0
10.0,9.0,-21.0,-54.0,-4000.0,-161.0,217.0,312.0
-5.0,-183.0,-36.0,-38.0,-4000.0,-186.0,213.0,296.0
21.0,-247.0,-68.0,-137.0,-4000.0,-182.0,148.0,199.0
8.0,-247.0,-79.0,-61.0,-4000.0,-154.0,79.0,210.0
-12.0,-347.0,-48.0,37.0,-4000.0,-156.0,-30.0,318.0
-12.0,-176.0,-56.0,52.0,-4000.0,-175.0,-27.0,360.0
-40.0,55.0,-60.0,-28.0,-3689.0,-234.0,95.0,448.0
-73.0,30.0,-49.0,27.0,-2140.0,-260.0,249.0,490.0
-88.0,80.0,-31.0,7.0,-780.0,-133.0,368.0,391.0
-51.0,65.0,-10.0,-56.0,252.0,-54.0,376.0,383.0
-13.0,134.0,10.0,-34.0,1018.0,-102.0,429.0,434.0
-9.0,157.0,4.0,-133.0,1639.0,-136.0,445.0,434.0
-4.0,60.0,4.0,-114.0,2189.0,-149.0,384.0,399.0
5.0,117.0,-29.0,-72.0,2760.0,-88.0,338.0,174.0
-6.0,129.0,-30.0,-36.0,2972.0,-23.0,425.0,105.0
-13.0,152.0,-10.0,28.0,3150.0,8.0,367.0,201.0
-5.0,132.0,-8.0,106.0,2842.0,-7.0,232.0,146.0
-5.0,95.0,9.0,172.0,2306.0,-66.0,105.0,136.0
-18.0,32.0,-3.0,199.0,2057.0,-37.0,24.0,117.0
-24.0,-39.0,-5.0,144.0,1604.0,-1.0,-12.0,66.0
-4.0,-60.0,-14.0,358.0,1574.0,0.0,-72.0,-87.0
-12.0,-108.0,1.0,668.0,1352.0,-2.0,-94.0,-199.0
0.0,-125.0,-1.0,580.0,920.0,-15.0,-178.0,-168.0
10.0,-182.0,-18.0,524.0,635.0,-39.0,-195.0,-96.0
4.0,-176.0,2.0,590.0,-56.0,-12.0,-119.0,54.0
23.0,-156.0,-17.0,-86.0,-409.0,28.0,2.0,149.0
38.0,-157.0,23.0,-659.0,-744.0,21.0,112.0,267.0
33.0,-108.0,56.0,-809.0,-1207.0,42.0,50.0,276.0
37.0,-72.0,20.0,-871.0,-1369.0,76.0,-97.0,279.0
33.0,-28.0,36.0,-711.0,-1849.0,68.0,-154.0,346.0
31.0,37.0,42.0,-938.0,-2157.0,72.0,-112.0,277.0
50.0,74.0,6.0,-641.0,-2225.0,29.0,-117.0,216.0
52.0,85.0,-14.0,-232.0,-2354.0,-3.0,-161.0,171.0
35.0,70.0,-2.0,-102.0,-2726.0,57.0,-83.0,-27.0
42.0,109.0,6.0,29.0,-3327.0,41.0,-124.0,-305.0
7.0,103.0,16.0,84.0,-3521.0,25.0,-188.0,-142.0
-25.0,47.0,7.0,272.0,-3262.0,48.0,-151.0,153.0
-23.0,70.0,-27.0,215.0,-2509.0,99.0,-154.0,-82.0
-62.0,38.0,-12.0,220.0,-1649.0,77.0,-140.0,-234.0
-77.0,45.0,-36.0,193.0,-1059.0,-18.0,-220.0,-213.0
-34.0,78.0,-52.0,142.0,-354.0,-24.0,-258.0,-280.0
-20.0,70.0,-44.0,115.0,87.0,-8.0,-226.0,-685.0
-13.0,70.0,-39.0,77.0,469.0,-54.0,-195.0,-1018.0
5.0,49.0,-23.0,31.0,887.0,-135.0,-130.0,-411.0
-9.0,28.0,-32.0,-17.0,1201.0,-116.0,-176.0,-121.0
-9.0,41.0,-30.0,-44.0,1722.0,-82.0,-210.0,-296.0
-17.0,-13.0,-48.0,-97.0,2124.0,-74.0,-198.0,-320.0
-46.0,-172.0,-31.0,-28.0,2320.0,-101.0,-196.0,-476.0
-31.0,-177.0,-5.0,21.0,2578.0,-61.0,-174.0,-431.0
4.0,-87.0,22.0,91.0,2695.0,27.0,-147.0,-466.0
-13.0,-40.0,42.0,60.0,2425.0,30.0,-180.0,-466.0
-9.0,30.0,36.0,12.0,2113.0,31.0,-186.0,-456.0
-18.0,82.0,48.0,35.0,2124.0,-11.0,-174.0,-539.0
4.0,119.0,21.0,72.0,2308.0,-30.0,-372.0,-665.0
16.0,180.0,16.0,161.0,2378.0,-10.0,-603.0,-710.0
-23.0,135.0,5.0,182.0,2630.0,-26.0,-314.0,-622.0
-40.0,138.0,15.0,242.0,2878.0,-43.0,120.0,-778.0
-32.0,67.0,20.0,310.0,2646.0,-26.0,113.0,-875.0
-12.0,0.0,13.0,181.0,2485.0,10.0,81.0,-645.0
-17.0,-53.0,20.0,50.0,2296.0,36.0,34.0,-284.0
-13.0,-287.0,30.0,31.0,2100.0,34.0,-26.0,-211.0
-7.0,-352.0,9.0,-8.0,2425.0,19.0,-63.0,-236.0
-25.0,-273.0,-19.0,-78.0,2825.0,37.0,-71.0,-209.0
7.0,-2.0,8.0,-217.0,3085.0,47.0,-64.0,-166.0
13.0,225.0,1.0,-293.0,3558.0,73.0,-85.0,-72.0
-29.0,437.0,-37.0,-259.0,4000.0,86.0,-52.0,2.0
-20.0,556.0,-2.0,-127.0,4000.0,104.0,-60.0,49.0
-21.0,395.0,0.0,-167.0,4000.0,123.0,15.0,41.0
-39.0,93.0,2.0,-190.0,4000.0,155.0,32.0,-23.0
-54.0,-354.0,10.0,-145.0,4000.0,155.0,-15.0,-169.0
-12.0,-423.0,-33.0,-182.0,4000.0,99.0,0.0,-183.0
24.0,-336.0,-7.0,-91.0,4000.0,90.0,-65.0,-5.0
23.0,-281.0,-17.0,-5.0,3772.0,81.0,-136.0,15.0
8.0,-133.0,-21.0,5.0,3595.0,113.0,-172.0,-72.0
-2.0,-194.0,-11.0,-110.0,3363.0,129.0,-262.0,-183.0
-13.0,-226.0,-15.0,-65.0,3215.0,143.0,-459.0,-227.0
-17.0,-108.0,22.0,12.0,3127.0,88.0,-530.0,-192.0
-18.0,58.0,-21.0,-57.0,2760.0,-36.0,-294.0,-37.0
-9.0,25.0,-38.0,-22.0,2451.0,-43.0,-226.0,172.0
3.0,-34.0,-36.0,-26.0,2060.0,-63.0,-308.0,296.0
-26.0,78.0,-34.0,24.0,2035.0,-30.0,-127.0,283.0
-16.0,147.0,-55.0,2.0,2113.0,-29.0,107.0,156.0
-36.0,108.0,-75.0,-2.0,1787.0,-26.0,162.0,163.0
-78.0,-181.0,-52.0,69.0,1590.0,-7.0,74.0,193.0
-40.0,-179.0,-34.0,126.0,1333.0,-17.0,79.0,125.0
-26.0,73.0,-10.0,169.0,944.0,-23.0,45.0,60.0
-39.0,217.0,-39.0,111.0,725.0,-12.0,3.0,108.0
-53.0,205.0,-22.0,61.0,596.0,62.0,0.0,148.0
-55.0,71.0,36.0,-2.0,406.0,88.0,18.0,127.0
-34.0,82.0,35.0,-27.0,302.0,195.0,51.0,139.0
-1.0,18.0,52.0,-40.0,230.0,179.0,72.0,100.0
-18.0,-14.0,54.0,-123.0,157.0,126.0,120.0,63.0
16.0,85.0,45.0,-116.0,225.0,138.0,80.0,-8.0
36.0,146.0,8.0,-17.0,157.0,87.0,48.0,-81.0
10.0,120.0,9.0,73.0,-170.0,88.0,-10.0,-19.0
6.0,58.0,-3.0,128.0,-470.0,167.0,-64.0,107.0
-18.0,46.0,-37.0,203.0,-718.0,237.0,-61.0,174.0
12.0,36.0,-36.0,303.0,-494.0,193.0,13.0,294.0
-9.0,-130.0,-56.0,561.0,-698.0,200.0,66.0,409.0
-11.0,-240.0,-59.0,568.0,-947.0,172.0,87.0,444.0
2.0,-177.0,-41.0,18.0,-974.0,79.0,113.0,465.0
2.0,-67.0,-40.0,-371.0,-1109.0,73.0,90.0,425.0
-18.0,211.0,-94.0,-680.0,-1142.0,35.0,89.0,453.0
-24.0,353.0,-23.0,-754.0,-1124.0,22.0,43.0,526.0
-28.0,290.0,23.0,-570.0,-645.0,48.0,48.0,420.0
-65.0,282.0,-5.0,-508.0,-505.0,25.0,13.0,239.0
-23.0,108.0,40.0,-185.0,-746.0,10.0,-51.0,221.0
-25.0,-46.0,20.0,-89.0,-883.0,17.0,-129.0,187.0
-43.0,-137.0,26.0,-200.0,-797.0,-7.0,-224.0,186.0
-7.0,-310.0,38.0,-251.0,-621.0,-2.0,-204.0,255.0
1.0,-429.0,23.0,-336.0,-577.0,24.0,-76.0,266.0
27.0,-362.0,15.0,-247.0,-637.0,20.0,-12.0,210.0
53.0,-29.0,40.0,-119.0,-763.0,2.0,29.0,128.0
35.0,85.0,53.0,156.0,-913.0,18.0,172.0,117.0
22.0,26.0,38.0,232.0,-990.0,13.0,294.0,146.0
15.0,39.0,30.0,172.0,-1137.0,44.0,336.0,225.0
34.0,13.0,23.0,337.0,-1185.0,74.0,267.0,119.0
17.0,95.0,28.0,419.0,-1049.0,48.0,238.0,-3.0
4.0,160.0,31.0,356.0,-1247.0,94.0,290.0,-42.0
17.0,138.0,34.0,320.0,-1267.0,99.0,262.0,-111.0
-2.0,189.0,29.0,355.0,-1455.0,123.0,220.0,-108.0
27.0,343.0,37.0,292.0,-1626.0,119.0,199.0,-138.0
21.0,344.0,48.0,102.0,-1685.0,43.0,216.0,-189.0
9.0,247.0,14.0,-151.0,-1849.0,25.0,201.0,-202.0
4.0,85.0,-30.0,-195.0,-1882.0,-4.0,74.0,-145.0
-15.0,-166.0,-57.0,-198.0,-2065.0,-11.0,-159.0,-108.0
-8.0,-224.0,-46.0,-198.0,-1944.0,1.0,-235.0,-15.0
-36.0,-326.0,-25.0,-167.0,-2187.0,12.0,-89.0,-46.0
-74.0,-255.0,-1.0,-132.0,-2222.0,-2.0,75.0,-148.0
-61.0,51.0,-24.0,-155.0,-2252.0,-9.0,268.0,-135.0
-19.0,67.0,-21.0,-169.0,-2472.0,9.0,339.0,-218.0
-43.0,-88.0,10.0,-15.0,-2043.0,17.0,352.0,-254.0
-29.0,-118.0,-29.0,144.0,-1979.0,41.0,329.0,-278.0
-5.0,-169.0,-17.0,264.0,-2115.0,51.0,268.0,-186.0
-27.0,-247.0,-17.0,310.0,-2065.0,57.0,244.0,-183.0
-10.0,-264.0,-41.0,276.0,-1991.0,56.0,180.0,-297.0
17.0,-99.0,-12.0,264.0,-2187.0,85.0,216.0,-419.0
14.0,256.0,-9.0,161.0,-2094.0,111.0,238.0,-357.0
1.0,435.0,-36.0,17.0,-2094.0,63.0,177.0,-275.0
21.0,508.0,-22.0,-23.0,-2212.0,29.0,170.0,-370.0
-2.0,315.0,-16.0,-145.0,-2147.0,-1.0,139.0,-209.0
-5.0,-65.0,-12.0,-285.0,-2271.0,2.0,45.0,-51.0
34.0,-125.0,9.0,-279.0,-2409.0,-6.0,-19.0,66.0
8.0,-277.0,26.0,-120.0,-2670.0,-23.0,-80.0,200.0
16.0,-440.0,8.0,-4.0,-2578.0,20.0,-106.0,224.0
24.0,-347.0,15.0,25.0,-2344.0,55.0,-159.0,264.0
-27.0,-56.0,3.0,125.0,-2250.0,82.0,-322.0,324.0
-1.0,175.0,-21.0,105.0,-2419.0,93.0,-382.0,308.0
-37.0,84.0,4.0,131.0,-2537.0,76.0,-359.0,112.0
-44.0,-307.0,-30.0,51.0,-2482.0,74.0,-304.0,-251.0
-14.0,-541.0,-53.0,-103.0,-2484.0,76.0,-192.0,-581.0
-23.0,-395.0,-49.0,-145.0,-2484.0,65.0,-169.0,-386.0
-21.0,-162.0,-11.0,-231.0,-2277.0,79.0,-64.0,-67.0
-35.0,-21.0,10.0,-180.0,-1833.0,87.0,81.0,63.0
2.0,-3.0,-8.0,-161.0,-1652.0,101.0,86.0,251.0
8.0,73.0,-7.0,-132.0,-1573.0,61.0,113.0,286.0
3.0,83.0,28.0,-14.0,-812.0,12.0,87.0,210.0
-5.0,105.0,8.0,-11.0,-486.0,76.0,25.0,136.0
-20.0,120.0,-2.0,25.0,-947.0,113.0,12.0,255.0
6.0,128.0,-14.0,21.0,-653.0,110.0,37.0,194.0
6.0,186.0,-11.0,-1.0,-753.0,87.0,81.0,-84.0
6.0,227.0,23.0,19.0,-773.0,74.0,76.0,14.0
-14.0,227.0,-16.0,33.0,-535.0,47.0,86.0,21.0
-29.0,209.0,2.0,-4.0,-211.0,20.0,105.0,-80.0
-29.0,235.0,-6.0,-25.0,348.0,-9.0,86.0,34.0
-13.0,216.0,15.0,-40.0,363.0,-15.0,-7.0,80.0
-26.0,151.0,-3.0,-76.0,526.0,10.0,-85.0,112.0
-27.0,131.0,-23.0,109.0,560.0,-7.0,-106.0,106.0
-16.0,120.0,34.0,515.0,495.0,16.0,-75.0,44.0
-10.0,74.0,3.0,417.0,182.0,-2.0,-65.0,-25.0
6.0,110.0,11.0,-95.0,171.0,-8.0,-69.0,-104.0
2.0,40.0,5.0,-310.0,169.0,56.0,-40.0,-140.0
-5.0,76.0,18.0,-420.0,374.0,93.0,-38.0,-148.0
-4.0,78.0,15.0,-393.0,1069.0,160.0,-34.0,-132.0
-10.0,57.0,-4.0,-282.0,1247.0,183.0,-75.0,-175.0
-20.0,74.0,-17.0,-66.0,1287.0,197.0,-147.0,-269.0
-1.0,27.0,-74.0,29.0,1417.0,142.0,-130.0,-295.0
-11.0,62.0,-38.0,5.0,1722.0,93.0,-110.0,-202.0
-1.0,26.0,-14.0,-10.0,1800.0,63.0,-84.0,-56.0
7.0,41.0,-32.0,-112.0,1982.0,8.0,-107.0,33.0
1.0,39.0,21.0,-50.0,1995.0,23.0,-176.0,54.0
2.0,-7.0,20.0,-121.0,1995.0,-6.0,-91.0,39.0
17.0,58.0,-14.0,-148.0,2060.0,-4.0,-98.0,26.0
11.0,162.0,-15.0,-36.0,1930.0,-29.0,-121.0,64.0
-8.0,197.0,-16.0,29.0,1930.0,-12.0,-8.0,190.0
-13.0,175.0,-13.0,-106.0,1768.0,34.0,46.0,426.0
-26.0,81.0,-6.0,-74.0,1604.0,-2.0,22.0,634.0
-5.0,-26.0,11.0,90.0,1453.0,0.0,-32.0,731.0
-18.0,-96.0,8.0,81.0,1409.0,-18.0,-6.0,798.0
23.0,-298.0,36.0,100.0,1394.0,-12.0,33.0,1000.0
81.0,-318.0,33.0,71.0,1473.0,-27.0,107.0,1216.0
45.0,-261.0,37.0,182.0,1488.0,-56.0,210.0,1338.0
25.0,-159.0,33.0,264.0,1405.0,-64.0,210.0,1411.0
18.0,117.0,-6.0,290.0,1590.0,-76.0,241.0,1467.0
-6.0,149.0,-7.0,146.0,1865.0,-48.0,242.0,1532.0
-21.0,183.0,-24.0,-13.0,1930.0,-98.0,130.0,1533.0
-61.0,158.0,-34.0,-17.0,1734.0,-159.0,81.0,1502.0
-114.0,-19.0,-43.0,-120.0,1710.0,-196.0,64.0,1586.0
-83.0,45.0,-51.0,-103.0,1733.0,-251.0,-25.0,1598.0
-90.0,-89.0,-38.0,-14.0,1722.0,-255.0,-71.0,1446.0
-120.0,-314.0,-49.0,108.0,1720.0,-275.0,-133.0,1118.0
-92.0,-337.0,-65.0,189.0,1398.0,-247.0,-227.0,947.0
-59.0,-267.0,-55.0,139.0,883.0,-244.0,-240.0,1026.0
-47.0,-110.0,-36.0,94.0,877.0,-272.0,-241.0,1112.0
-73.0,-36.0,-29.0,-20.0,787.0,-220.0,-320.0,1198.0
-56.0,-128.0,-31.0,-141.0,432.0,-273.0,-424.0,1142.0
-29.0,-263.0,-8.0,-149.0,155.0,-261.0,-467.0,1142.0
1.0,-299.0,-23.0,-151.0,-174.0,-253.0,-350.0,1182.0
18.0,-288.0,-34.0,-180.0,-123.0,-240.0,-210.0,1012.0
17.0,-264.0,-17.0,-208.0,-56.0,-178.0,-134.0,778.0
27.0,-188.0,-6.0,-126.0,103.0,-147.0,-102.0,601.0
42.0,-84.0,-5.0,-46.0,196.0,-123.0,-159.0,499.0
4.0,160.0,-21.0,-65.0,261.0,-161.0,-176.0,369.0
-10.0,505.0,10.0,-37.0,302.0,-172.0,-108.0,290.0
-9.0,502.0,16.0,4.0,216.0,-161.0,-91.0,88.0
13.0,506.0,13.0,220.0,245.0,-113.0,-73.0,14.0
40.0,672.0,17.0,577.0,361.0,-98.0,-32.0,-97.0
26.0,391.0,10.0,603.0,706.0,-84.0,73.0,-192.0
13.0,-110.0,-2.0,336.0,651.0,-14.0,164.0,-138.0
1.0,-404.0,-11.0,16.0,402.0,-63.0,104.0,-109.0
23.0,-530.0,-2.0,-230.0,-24.0,-27.0,50.0,29.0
56.0,-318.0,4.0,-387.0,-262.0,36.0,15.0,-105.0
61.0,-78.0,-4.0,-571.0,-378.0,77.0,106.0,-354.0
44.0,-135.0,23.0,-604.0,-631.0,196.0,294.0,-424.0
11.0,-332.0,11.0,-527.0,-419.0,191.0,302.0,-357.0
-38.0,-521.0,-11.0,-518.0,-281.0,144.0,105.0,-482.0
-5.0,-568.0,-17.0,-277.0,-183.0,118.0,-63.0,-883.0
23.0,-566.0,-40.0,-67.0,-374.0,93.0,40.0,-1108.0
33.0,-566.0,-28.0,-81.0,-846.0,79.0,506.0,-1129.0
39.0,-337.0,-7.0,-82.0,-1137.0,73.0,637.0,-1632.0
16.0,38.0,-16.0,-69.0,-1253.0,66.0,374.0,-1985.0
16.0,140.0,23.0,12.0,-1333.0,77.0,191.0,-1319.0
-5.0,199.0,46.0,72.0,-1359.0,83.0,274.0,-953.0
-3.0,211.0,52.0,76.0,-1265.0,81.0,464.0,-999.0
20.0,77.0,31.0,99.0,-1239.0,57.0,341.0,-750.0
49.0,46.0,13.0,103.0,-1318.0,84.0,325.0,-801.0
25.0,79.0,28.0,125.0,-1528.0,130.0,219.0,-740.0
-7.0,534.0,-5.0,50.0,-1369.0,78.0,172.0,-693.0
-20.0,846.0,-17.0,41.0,-1229.0,19.0,203.0,-738.0
-32.0,660.0,-15.0,51.0,-1137.0,19.0,91.0,-710.0
-67.0,663.0,-4.0,88.0,-1007.0,57.0,86.0,-692.0
-65.0,556.0,2.0,172.0,-840.0,8.0,129.0,-593.0
-36.0,353.0,5.0,110.0,-679.0,-21.0,144.0,-594.0
-63.0,282.0,-11.0,157.0,-742.0,-43.0,93.0,-543.0
-74.0,278.0,-41.0,132.0,-599.0,-92.0,170.0,-517.0
-85.0,176.0,-26.0,35.0,-478.0,-134.0,134.0,-424.0
-47.0,-19.0,-3.0,87.0,-380.0,-186.0,220.0,-264.0
-28.0,-81.0,9.0,42.0,-270.0,-124.0,271.0,-209.0
-31.0,-176.0,1.0,50.0,-95.0,-82.0,197.0,-170.0
0.0,-163.0,39.0,99.0,-33.0,-75.0,238.0,-205.0
-19.0,-96.0,36.0,85.0,2.0,-25.0,191.0,-286.0
47.0,-177.0,46.0,64.0,36.0,-47.0,199.0,-259.0
82.0,-288.0,49.0,29.0,-201.0,-110.0,149.0,-215.0
32.0,-215.0,14.0,-18.0,-346.0,-130.0,101.0,-201.0
36.0,-56.0,10.0,-68.0,-421.0,-177.0,86.0,-183.0
49.0,-32.0,-2.0,38.0,-468.0,-204.0,50.0,-155.0
33.0,-19.0,21.0,358.0,-364.0,-202.0,16.0,-102.0
-1.0,55.0,-13.0,559.0,-400.0,-187.0,-2.0,-10.0
-13.0,74.0,-11.0,268.0,-299.0,-208.0,-1.0,102.0
-2.0,106.0,-6.0,-187.0,55.0,-223.0,-68.0,196.0
-21.0,151.0,-20.0,-421.0,187.0,-194.0,-71.0,296.0
-19.0,208.0,5.0,-455.0,140.0,-219.0,41.0,290.0
-23.0,216.0,5.0,-475.0,279.0,-187.0,89.0,230.0
-48.0,156.0,-10.0,-539.0,391.0,-194.0,75.0,200.0
-37.0,23.0,-15.0,-426.0,485.0,-206.0,47.0,225.0
-25.0,-133.0,-21.0,-230.0,440.0,-194.0,18.0,409.0
-4.0,-201.0,-32.0,-161.0,505.0,-177.0,98.0,547.0
-14.0,-247.0,-20.0,-165.0,823.0,-159.0,83.0,719.0
-8.0,-101.0,-32.0,-137.0,1010.0,-161.0,54.0,825.0
-33.0,106.0,-44.0,-63.0,1269.0,-93.0,70.0,751.0
-21.0,121.0,-64.0,103.0,1222.0,-82.0,38.0,760.0
3.0,31.0,-64.0,264.0,1135.0,-62.0,-16.0,590.0
-12.0,5.0,-23.0,263.0,1003.0,-26.0,-45.0,190.0
-20.0,-34.0,-7.0,303.0,815.0,-10.0,-36.0,-287.0
-41.0,-179.0,-15.0,377.0,961.0,12.0,-84.0,-457.0
-40.0,-338.0,-26.0,245.0,831.0,31.0,-91.0,-455.0
-39.0,-305.0,-15.0,49.0,784.0,53.0,-169.0,-385.0
-40.0,5.0,-16.0,-38.0,831.0,82.0,-188.0,50.0
-36.0,150.0,-6.0,-34.0,766.0,98.0,-150.0,78.0
-22.0,168.0,-33.0,-71.0,725.0,109.0,-235.0,63.0
-14.0,159.0,-43.0,-83.0,586.0,141.0,-140.0,119.0
-21.0,99.0,-17.0,-110.0,444.0,203.0,-28.0,171.0
16.0,19.0,-30.0,-96.0,160.0,234.0,-7.0,247.0
7.0,-121.0,-18.0,-13.0,39.0,231.0,-134.0,46.0
-9.0,-198.0,-31.0,-17.0,-19.0,273.0,-237.0,2.0
20.0,-310.0,16.0,-6.0,-36.0,274.0,-192.0,-105.0
15.0,-334.0,44.0,-74.0,102.0,281.0,-216.0,-63.0
40.0,-122.0,54.0,-109.0,106.0,293.0,-143.0,-56.0
54.0,-26.0,45.0,-96.0,43.0,276.0,-202.0,-124.0
3.0,-92.0,-3.0,-68.0,113.0,276.0,-163.0,-127.0
-5.0,-122.0,34.0,-61.0,281.0,235.0,-33.0,-203.0
-11.0,-139.0,29.0,-149.0,391.0,165.0,-42.0,-394.0
-23.0,-82.0,27.0,-112.0,358.0,118.0,-15.0,-447.0
-18.0,-65.0,33.0,29.0,391.0,97.0,81.0,-242.0
-21.0,-37.0,7.0,2.0,392.0,57.0,105.0,-294.0
-13.0,5.0,-15.0,-38.0,287.0,25.0,79.0,-245.0
-20.0,84.0,-5.0,69.0,651.0,11.0,154.0,-31.0
-23.0,217.0,-9.0,62.0,811.0,-13.0,123.0,131.0
-10.0,404.0,-9.0,28.0,701.0,-2.0,143.0,238.0
-15.0,412.0,-16.0,-69.0,817.0,-16.0,107.0,334.0
3.0,290.0,-21.0,23.0,823.0,10.0,30.0,258.0
-5.0,197.0,-16.0,27.0,870.0,64.0,9.0,178.0
-17.0,34.0,-1.0,-255.0,896.0,116.0,120.0,253.0
-11.0,36.0,16.0,-324.0,953.0,151.0,290.0,243.0
-28.0,15.0,16.0,-212.0,778.0,156.0,368.0,261.0
-20.0,-194.0,34.0,-52.0,459.0,160.0,394.0,151.0
-13.0,-366.0,-20.0,81.0,247.0,123.0,262.0,119.0
-15.0,-241.0,-18.0,199.0,-2.0,118.0,113.0,33.0
-17.0,-176.0,6.0,366.0,-124.0,62.0,-98.0,-117.0
-11.0,-161.0,2.0,538.0,-15.0,12.0,-161.0,-92.0
-1.0,-45.0,6.0,360.0,245.0,53.0,-90.0,-91.0
-20.0,-35.0,-12.0,106.0,267.0,64.0,-98.0,-280.0
-28.0,-1.0,-25.0,69.0,184.0,69.0,-197.0,-525.0
-1.0,-57.0,-33.0,-4.0,249.0,103.0,-279.0,-442.0
21.0,-88.0,-20.0,-15.0,182.0,106.0,-185.0,-189.0
6.0,8.0,-45.0,-26.0,-7.0,146.0,-158.0,10.0
-7.0,116.0,-29.0,-7.0,-242.0,188.0,-146.0,192.0
15.0,228.0,2.0,-81.0,-421.0,225.0,-155.0,393.0
14.0,319.0,-9.0,-127.0,-515.0,196.0,-298.0,474.0
-10.0,241.0,-20.0,-38.0,-518.0,148.0,-333.0,552.0
-18.0,103.0,-29.0,71.0,-511.0,97.0,-310.0,686.0
-62.0,8.0,-29.0,39.0,-385.0,94.0,-235.0,765.0
-63.0,-130.0,-27.0,-94.0,-205.0,134.0,-72.0,544.0
-40.0,-182.0,-25.0,-20.0,-44.0,105.0,-26.0,212.0
-41.0,-219.0,-29.0,187.0,-16.0,88.0,66.0,170.0
-28.0,-241.0,-29.0,197.0,-141.0,50.0,68.0,44.0
-30.0,-153.0,-47.0,-122.0,-82.0,-17.0,-48.0,-71.0
-49.0,-26.0,-5.0,-241.0,-234.0,-66.0,50.0,-61.0
-23.0,-137.0,20.0,-348.0,-339.0,-116.0,155.0,-3.0
-11.0,-282.0,-3.0,-346.0,-278.0,-110.0,143.0,-111.0
16.0,-114.0,15.0,-201.0,-364.0,-61.0,201.0,-362.0
20.0,44.0,24.0,-198.0,-295.0,-23.0,331.0,-414.0
-6.0,128.0,8.0,-255.0,-21.0,30.0,457.0,-360.0
49.0,273.0,-21.0,-218.0,140.0,17.0,576.0,-315.0
64.0,346.0,-28.0,355.0,109.0,-36.0,441.0,-317.0
20.0,312.0,-6.0,603.0,431.0,-33.0,283.0,-305.0
-36.0,240.0,14.0,182.0,589.0,-6.0,206.0,-262.0
-60.0,160.0,24.0,-42.0,547.0,25.0,74.0,-59.0
-48.0,71.0,10.0,-171.0,428.0,54.0,64.0,127.0
-16.0,31.0,19.0,-220.0,264.0,90.0,0.0,194.0
4.0,48.0,0.0,-253.0,216.0,113.0,-27.0,355.0
-34.0,52.0,-11.0,-263.0,111.0,141.0,-9.0,442.0
-13.0,58.0,-7.0,-85.0,308.0,246.0,64.0,338.0
-14.0,-75.0,-22.0,-55.0,538.0,278.0,90.0,103.0
1.0,-105.0,-20.0,-120.0,599.0,213.0,101.0,-101.0
13.0,-28.0,2.0,-180.0,415.0,220.0,127.0,-183.0
21.0,155.0,35.0,-185.0,325.0,221.0,144.0,-149.0
21.0,382.0,6.0,-143.0,145.0,268.0,206.0,-99.0
12.0,290.0,12.0,-54.0,-183.0,366.0,181.0,-118.0
37.0,93.0,-4.0,-94.0,-321.0,384.0,154.0,-482.0
1.0,3.0,-25.0,-89.0,-356.0,348.0,132.0,-1018.0
17.0,-75.0,1.0,54.0,-341.0,336.0,144.0,-776.0
29.0,-80.0,7.0,116.0,-460.0,331.0,126.0,23.0
18.0,-114.0,-2.0,178.0,-505.0,283.0,95.0,258.0
13.0,-199.0,12.0,244.0,-511.0,311.0,104.0,434.0
-2.0,-99.0,56.0,316.0,-580.0,348.0,100.0,541.0
1.0,-42.0,52.0,311.0,-788.0,299.0,90.0,283.0
8.0,-53.0,38.0,210.0,-913.0,289.0,16.0,72.0
0.0,-81.0,9.0,220.0,-947.0,303.0,48.0,-83.0
11.0,-98.0,6.0,174.0,-1059.0,237.0,73.0,-36.0
-3.0,-96.0,-7.0,106.0,-983.0,183.0,20.0,-97.0
-31.0,-114.0,-20.0,116.0,-724.0,110.0,6.0,-111.0
-41.0,-87.0,-19.0,64.0,-588.0,37.0,6.0,-89.0
-37.0,24.0,-8.0,47.0,-360.0,21.0,46.0,-203.0
-8.0,188.0,11.0,-34.0,-160.0,-36.0,16.0,-275.0
-17.0,217.0,-17.0,-111.0,-339.0,-44.0,-36.0,-338.0
4.0,217.0,-11.0,-103.0,-486.0,-11.0,-32.0,-431.0
-5.0,162.0,-7.0,-114.0,-486.0,107.0,-71.0,-508.0
-29.0,95.0,-38.0,-122.0,-256.0,266.0,-162.0,-577.0
-39.0,76.0,-41.0,-111.0,23.0,329.0,-284.0,-599.0
-45.0,103.0,-33.0,-36.0,86.0,315.0,-233.0,-529.0
-29.0,24.0,-24.0,-14.0,216.0,315.0,-221.0,-435.0
-5.0,-155.0,-28.0,-74.0,180.0,375.0,-345.0,-235.0
33.0,-152.0,-50.0,-149.0,79.0,315.0,-338.0,-209.0
-9.0,-144.0,-11.0,-128.0,123.0,241.0,-298.0,-15.0
-14.0,-14.0,0.0,-81.0,75.0,123.0,-198.0,348.0
-1.0,5.0,-11.0,-63.0,-246.0,44.0,-233.0,397.0
-33.0,-89.0,-9.0,-51.0,-162.0,90.0,-202.0,474.0
-12.0,-130.0,-18.0,-109.0,16.0,44.0,2.0,503.0
-14.0,-330.0,-13.0,-198.0,-109.0,-77.0,-82.0,613.0
-14.0,-414.0,0.0,-186.0,18.0,-194.0,-74.0,615.0
-20.0,-286.0,-4.0,-112.0,-152.0,-344.0,-37.0,332.0
-31.0,70.0,-6.0,-72.0,-274.0,-468.0,-95.0,-75.0
-39.0,273.0,-8.0,56.0,-136.0,-571.0,-127.0,-259.0
-20.0,254.0,-11.0,158.0,-164.0,-685.0,-134.0,-425.0
-5.0,319.0,-8.0,120.0,-201.0,-716.0,-143.0,-1061.0
-27.0,233.0,-31.0,66.0,-412.0,-716.0,-159.0,-1375.0
-12.0,-66.0,-26.0,16.0,-399.0,-615.0,-117.0,-980.0
-8.0,-278.0,-36.0,45.0,-248.0,-501.0,-72.0,-549.0
-16.0,-338.0,-57.0,42.0,-103.0,-476.0,-34.0,-490.0
-24.0,-373.0,1.0,34.0,-148.0,-423.0,-21.0,-492.0
-12.0,-206.0,-11.0,-64.0,-201.0,-402.0,38.0,-687.0
-20.0,3.0,14.0,-83.0,-156.0,-416.0,104.0,-708.0
-12.0,134.0,38.0,78.0,-333.0,-411.0,170.0,-646.0
-3.0,240.0,-47.0,-81.0,-285.0,-317.0,181.0,-658.0
-32.0,33.0,-44.0,-137.0,-131.0,-245.0,154.0,-593.0
-42.0,-202.0,-28.0,42.0,11.0,-161.0,126.0,-557.0
-19.0,-77.0,-25.0,106.0,174.0,-97.0,124.0,-484.0
-29.0,50.0,-33.0,94.0,355.0,-86.0,122.0,-562.0
-29.0,84.0,-45.0,49.0,491.0,-27.0,40.0,-599.0
-29.0,1.0,-30.0,-106.0,456.0,-16.0,-29.0,-475.0
-63.0,-86.0,-17.0,-139.0,355.0,4.0,42.0,-275.0
-19.0,-33.0,30.0,-30.0,310.0,25.0,95.0,-128.0
2.0,19.0,14.0,-46.0,348.0,22.0,48.0,-67.0
-33.0,-38.0,-15.0,-30.0,333.0,-6.0,152.0,-3.0
-33.0,-137.0,6.0,-118.0,263.0,-68.0,232.0,47.0
20.0,-159.0,8.0,-142.0,84.0,-113.0,262.0,8.0
12.0,-241.0,-25.0,-133.0,19.0,-151.0,294.0,53.0
11.0,-18.0,-5.0,-178.0,-35.0,-149.0,291.0,206.0
24.0,70.0,14.0,-197.0,-6.0,-72.0,276.0,358.0
32.0,42.0,20.0,-187.0,137.0,2.0,155.0,422.0
42.0,160.0,71.0,-173.0,180.0,46.0,146.0,238.0
24.0,148.0,30.0,-180.0,314.0,75.0,94.0,-191.0
53.0,326.0,34.0,-50.0,450.0,101.0,-61.0,-541.0
40.0,424.0,51.0,26.0,570.0,99.0,-253.0,-124.0
44.0,582.0,65.0,102.0,672.0,152.0,-340.0,274.0
17.0,722.0,60.0,164.0,682.0,348.0,-110.0,426.0
-18.0,540.0,10.0,204.0,748.0,542.0,111.0,784.0
-9.0,381.0,23.0,217.0,823.0,687.0,243.0,847.0
13.0,110.0,16.0,170.0,866.0,749.0,171.0,882.0
16.0,-228.0,-32.0,102.0,857.0,880.0,65.0,988.0
-13.0,-404.0,-5.0,30.0,938.0,998.0,201.0,874.0
7.0,-448.0,-13.0,197.0,998.0,961.0,196.0,743.0
23.0,-497.0,-7.0,182.0,998.0,858.0,67.0,601.0
14.0,-410.0,45.0,66.0,1032.0,778.0,223.0,349.0
1.0,-47.0,-3.0,19.0,870.0,795.0,262.0,200.0
37.0,122.0,11.0,150.0,586.0,860.0,209.0,177.0
23.0,160.0,-2.0,561.0,432.0,831.0,149.0,328.0
-20.0,76.0,-43.0,655.0,466.0,673.0,12.0,442.0
-29.0,8.0,-22.0,668.0,367.0,651.0,-18.0,426.0
-3.0,-16.0,-7.0,363.0,412.0,701.0,-63.0,410.0
37.0,-196.0,-13.0,-346.0,615.0,687.0,-16.0,308.0
12.0,-336.0,-37.0,-719.0,444.0,603.0,-59.0,312.0
-16.0,-347.0,-13.0,-1114.0,375.0,497.0,-182.0,521.0
-23.0,-271.0,-26.0,-1231.0,462.0,522.0,-317.0,686.0
4.0,-110.0,-35.0,-1044.0,412.0,431.0,-207.0,544.0
-9.0,79.0,-24.0,-755.0,272.0,237.0,-84.0,12.0
-13.0,266.0,-23.0,-167.0,218.0,148.0,-35.0,-389.0
-4.0,365.0,-11.0,137.0,375.0,149.0,339.0,-180.0
-51.0,276.0,-2.0,232.0,358.0,170.0,441.0,-215.0
-28.0,145.0,10.0,376.0,169.0,69.0,394.0,-457.0
-31.0,57.0,15.0,258.0,136.0,12.0,341.0,-380.0
-46.0,85.0,15.0,317.0,118.0,45.0,183.0,-370.0
-12.0,82.0,21.0,292.0,98.0,29.0,105.0,-213.0
-52.0,36.0,-9.0,65.0,80.0,-25.0,40.0,11.0
-81.0,3.0,-24.0,133.0,-50.0,-43.0,22.0,200.0
-67.0,10.0,4.0,104.0,-101.0,-48.0,-16.0,320.0
-45.0,18.0,-40.0,109.0,-130.0,-50.0,-27.0,290.0
-4.0,-33.0,-78.0,85.0,-268.0,-129.0,-42.0,461.0
9.0,-42.0,-59.0,40.0,-324.0,-161.0,-65.0,606.0
4.0,-66.0,-37.0,57.0,-416.0,-98.0,-48.0,682.0
30.0,-47.0,-13.0,4.0,-395.0,-90.0,46.0,922.0
24.0,-26.0,11.0,81.0,-228.0,-17.0,123.0,1053.0
9.0,7.0,9.0,99.0,-142.0,68.0,132.0,922.0
21.0,55.0,7.0,39.0,-32.0,119.0,56.0,851.0
-6.0,70.0,-11.0,-13.0,-31.0,143.0,-33.0,700.0
9.0,131.0,-20.0,-64.0,-101.0,115.0,-54.0,369.0
-10.0,146.0,-4.0,-81.0,-253.0,25.0,-58.0,95.0
-28.0,140.0,-2.0,-14.0,-408.0,-27.0,-109.0,-250.0
-41.0,85.0,1.0,20.0,-318.0,-108.0,-250.0,-553.0
-45.0,205.0,15.0,-13.0,-207.0,-190.0,-326.0,-854.0
15.0,476.0,26.0,-21.0,-146.0,-173.0,-388.0,-683.0
-4.0,328.0,11.0,-40.0,-113.0,-199.0,-250.0,-679.0
-33.0,89.0,-6.0,-38.0,-146.0,-196.0,-22.0,-1330.0
-9.0,-208.0,10.0,45.0,-134.0,-258.0,93.0,-1430.0
-6.0,-521.0,13.0,67.0,-241.0,-281.0,181.0,-1856.0
14.0,-570.0,-33.0,-16.0,-295.0,-297.0,42.0,-1950.0
27.0,-606.0,11.0,31.0,-242.0,-352.0,-1.0,-1194.0
19.0,-432.0,56.0,59.0,-180.0,-423.0,-50.0,-1127.0
-10.0,-240.0,15.0,30.0,-356.0,-485.0,-72.0,-880.0
-40.0,7.0,-24.0,-1.0,-599.0,-476.0,23.0,-627.0
-51.0,-40.0,-34.0,-113.0,-419.0,-459.0,54.0,-455.0
-30.0,-383.0,35.0,-38.0,-299.0,-403.0,67.0,-23.0
-9.0,-410.0,2.0,-82.0,-321.0,-378.0,-10.0,54.0
-27.0,-301.0,24.0,-243.0,-508.0,-280.0,-6.0,148.0
-20.0,-202.0,69.0,-310.0,-577.0,-257.0,3.0,174.0
-43.0,-469.0,16.0,-351.0,-380.0,-260.0,-29.0,136.0
-43.0,-698.0,7.0,-263.0,-222.0,-186.0,-48.0,58.0
-47.0,-519.0,-22.0,-130.0,-33.0,-141.0,-62.0,-7.0
-22.0,-111.0,-30.0,-43.0,-67.0,-67.0,-36.0,-56.0
34.0,240.0,-61.0,-172.0,-263.0,-17.0,-41.0,-109.0
-3.0,388.0,-39.0,-178.0,-346.0,46.0,-94.0,11.0
-10.0,705.0,-24.0,16.0,-457.0,104.0,-123.0,165.0
-38.0,737.0,-50.0,99.0,-528.0,111.0,-51.0,308.0
-52.0,453.0,0.0,317.0,-395.0,163.0,64.0,434.0
-58.0,394.0,0.0,433.0,-269.0,175.0,92.0,507.0
-37.0,477.0,-22.0,459.0,-305.0,154.0,90.0,590.0
-14.0,721.0,-47.0,494.0,-263.0,127.0,82.0,547.0
-23.0,699.0,-24.0,419.0,-252.0,123.0,50.0,377.0
25.0,449.0,-10.0,236.0,-236.0,145.0,62.0,318.0
0.0,351.0,-13.0,217.0,-263.0,119.0,66.0,361.0
-4.0,136.0,17.0,333.0,-313.0,80.0,-36.0,322.0
13.0,24.0,-17.0,368.0,-174.0,-51.0,-161.0,184.0
25.0,-153.0,-9.0,374.0,-143.0,-132.0,-152.0,88.0
14.0,-360.0,40.0,-169.0,-182.0,-189.0,-109.0,9.0
25.0,-419.0,21.0,-935.0,-155.0,-261.0,-108.0,63.0
8.0,-163.0,-21.0,-1114.0,-58.0,-277.0,-69.0,171.0
-14.0,144.0,1.0,-940.0,-27.0,-338.0,3.0,213.0
1.0,73.0,34.0,-841.0,-42.0,-349.0,13.0,148.0
-23.0,95.0,33.0,-776.0,-5.0,-354.0,-98.0,14.0
-3.0,73.0,5.0,-409.0,78.0,-306.0,-65.0,9.0
-12.0,24.0,-2.0,10.0,157.0,-262.0,61.0,-120.0
-10.0,34.0,-16.0,272.0,270.0,-195.0,86.0,-202.0
1.0,-7.0,-25.0,301.0,425.0,-199.0,38.0,-30.0
-14.0,-104.0,-26.0,223.0,235.0,-271.0,-20.0,-140.0
-31.0,-172.0,-52.0,167.0,150.0,-174.0,-13.0,-159.0
-12.0,-72.0,-13.0,236.0,131.0,-94.0,-32.0,-44.0
36.0,21.0,10.0,245.0,92.0,-50.0,20.0,-29.0
27.0,-16.0,12.0,171.0,163.0,-113.0,78.0,-58.0
3.0,-46.0,20.0,182.0,61.0,-137.0,79.0,-397.0
-4.0,-50.0,-11.0,116.0,89.0,-65.0,80.0,-352.0
-30.0,-101.0,-18.0,56.0,7.0,5.0,4.0,-156.0
-37.0,-98.0,21.0,134.0,-25.0,8.0,-135.0,-181.0
-4.0,-37.0,15.0,150.0,42.0,-6.0,-207.0,-61.0
5.0,-30.0,-15.0,87.0,-31.0,38.0,-208.0,108.0
-25.0,-72.0,-39.0,84.0,37.0,29.0,-188.0,174.0
-33.0,-48.0,-46.0,34.0,93.0,24.0,-118.0,100.0
-19.0,-59.0,-37.0,1.0,73.0,62.0,-86.0,70.0
-16.0,-75.0,-5.0,19.0,147.0,126.0,76.0,-8.0
-32.0,-50.0,4.0,32.0,174.0,160.0,248.0,16.0
-55.0,-87.0,-26.0,-38.0,86.0,155.0,356.0,193.0
-61.0,-78.0,-10.0,-76.0,134.0,167.0,506.0,269.0
-23.0,-53.0,-32.0,-63.0,155.0,166.0,430.0,230.0
-20.0,-12.0,-22.0,-51.0,194.0,113.0,391.0,296.0
-21.0,34.0,-5.0,8.0,227.0,89.0,339.0,320.0
0.0,78.0,-14.0,-4.0,131.0,47.0,273.0,265.0
12.0,93.0,17.0,-30.0,75.0,-33.0,286.0,269.0
37.0,105.0,6.0,-74.0,85.0,-97.0,246.0,275.0
20.0,82.0,35.0,-93.0,70.0,-159.0,268.0,279.0
9.0,-44.0,24.0,-70.0,102.0,-201.0,259.0,202.0
1.0,-84.0,16.0,-91.0,236.0,-250.0,262.0,112.0
28.0,-114.0,38.0,-86.0,302.0,-293.0,217.0,15.0
50.0,-107.0,-1.0,-36.0,419.0,-297.0,184.0,83.0
23.0,-40.0,4.0,13.0,444.0,-277.0,160.0,252.0
23.0,79.0,8.0,-17.0,456.0,-268.0,37.0,249.0
-25.0,158.0,-7.0,-10.0,456.0,-247.0,-80.0,225.0
-23.0,46.0,-14.0,109.0,430.0,-252.0,-16.0,269.0
-38.0,27.0,43.0,272.0,462.0,-251.0,50.0,332.0
-52.0,-22.0,56.0,251.0,400.0,-137.0,36.0,452.0
-2.0,90.0,31.0,91.0,348.0,19.0,242.0,503.0
14.0,381.0,17.0,40.0,253.0,47.0,294.0,471.0
42.0,353.0,9.0,-107.0,237.0,54.0,208.0,369.0
51.0,496.0,24.0,-141.0,249.0,8.0,303.0,286.0
25.0,607.0,-6.0,-71.0,164.0,-72.0,267.0,137.0
-10.0,338.0,-46.0,-155.0,72.0,-55.0,183.0,-282.0
-17.0,-56.0,-70.0,-162.0,114.0,-64.0,144.0,-665.0
0.0,-403.0,-50.0,-146.0,196.0,-138.0,95.0,-427.0
34.0,-570.0,-54.0,-213.0,166.0,-205.0,90.0,29.0
6.0,-736.0,-26.0,-96.0,154.0,-226.0,-2.0,132.0
3.0,-722.0,1.0,4.0,141.0,-271.0,-61.0,206.0
35.0,-444.0,0.0,-98.0,104.0,-266.0,-85.0,300.0
-6.0,-358.0,5.0,-184.0,76.0,-161.0,-227.0,434.0
-25.0,-505.0,-6.0,-139.0,69.0,-189.0,-326.0,515.0
-29.0,-688.0,-27.0,10.0,-29.0,-226.0,-247.0,483.0
-44.0,-440.0,-23.0,-39.0,-8.0,-157.0,-179.0,538.0
-61.0,-157.0,-21.0,207.0,-4.0,-79.0,-156.0,674.0
-41.0,82.0,7.0,687.0,-108.0,-29.0,25.0,660.0
-41.0,353.0,6.0,509.0,-174.0,-76.0,138.0,260.0
-45.0,311.0,-31.0,320.0,-203.0,-102.0,73.0,88.0
-17.0,338.0,34.0,190.0,-162.0,-71.0,134.0,135.0
-27.0,256.0,34.0,-119.0,-299.0,-139.0,95.0,-287.0
-31.0,207.0,3.0,-202.0,-360.0,-202.0,29.0,-931.0
-36.0,190.0,-28.0,-503.0,-252.0,-179.0,43.0,-1274.0
-29.0,189.0,-88.0,-513.0,-160.0,-182.0,-16.0,-1078.0
-1.0,129.0,-91.0,-297.0,-118.0,-114.0,-132.0,-716.0
7.0,160.0,-65.0,-438.0,-105.0,-28.0,-204.0,-627.0
9.0,305.0,-30.0,-462.0,-111.0,105.0,-52.0,-378.0
-15.0,406.0,-25.0,-328.0,-64.0,194.0,-23.0,-105.0
-44.0,572.0,-5.0,51.0,-50.0,184.0,-51.0,174.0
-2.0,522.0,9.0,234.0,-102.0,209.0,62.0,390.0
-13.0,353.0,26.0,125.0,-83.0,207.0,29.0,344.0
3.0,193.0,40.0,77.0,-105.0,193.0,59.0,377.0
19.0,-131.0,78.0,26.0,-102.0,143.0,5.0,290.0
2.0,-492.0,52.0,69.0,-129.0,79.0,53.0,77.0
0.0,-460.0,20.0,-39.0,-172.0,63.0,84.0,-109.0
2.0,-440.0,9.0,-4.0,-160.0,66.0,-139.0,-398.0
5.0,-318.0,-1.0,167.0,-177.0,33.0,-140.0,-332.0
-15.0,-56.0,-11.0,298.0,-183.0,7.0,-59.0,145.0
2.0,70.0,-33.0,645.0,-136.0,19.0,-89.0,119.0
-14.0,114.0,-1.0,654.0,-85.0,10.0,-143.0,-193.0
-12.0,-30.0,16.0,276.0,-39.0,23.0,-197.0,-333.0
-18.0,21.0,16.0,10.0,-28.0,56.0,-130.0,-687.0
-36.0,-4.0,-14.0,-299.0,-48.0,37.0,-43.0,-431.0
-18.0,-20.0,-28.0,-487.0,-41.0,34.0,-63.0,42.0
3.0,60.0,-33.0,-679.0,-52.0,95.0,22.0,-297.0
-15.0,92.0,-31.0,-674.0,2.0,126.0,56.0,-192.0
-38.0,98.0,20.0,-359.0,42.0,143.0,40.0,199.0
-17.0,112.0,-1.0,-226.0,50.0,172.0,71.0,222.0
33.0,197.0,3.0,-1.0,103.0,180.0,25.0,314.0
36.0,135.0,57.0,102.0,92.0,155.0,1.0,218.0
2.0,26.0,46.0,95.0,80.0,155.0,22.0,-76.0
25.0,-32.0,56.0,142.0,96.0,149.0,77.0,-153.0
11.0,-5.0,2.0,85.0,104.0,145.0,100.0,196.0
9.0,-12.0,-26.0,97.0,84.0,140.0,79.0,348.0
-25.0,-13.0,9.0,113.0,40.0,90.0,14.0,288.0
-58.0,-50.0,24.0,145.0,3.0,126.0,30.0,399.0
-61.0,-32.0,21.0,172.0,20.0,151.0,67.0,368.0
-38.0,156.0,-6.0,158.0,51.0,209.0,50.0,379.0
-20.0,148.0,0.0,157.0,14.0,274.0,111.0,344.0
-43.0,74.0,-13.0,47.0,-7.0,249.0,105.0,235.0
-9.0,60.0,-36.0,-88.0,89.0,250.0,107.0,144.0
3.0,-26.0,-6.0,-177.0,104.0,210.0,84.0,43.0
21.0,-130.0,2.0,-190.0,43.0,216.0,59.0,54.0
9.0,-107.0,-7.0,-113.0,35.0,142.0,-8.0,55.0
-15.0,-83.0,-24.0,-91.0,44.0,105.0,-98.0,26.0
-13.0,-93.0,-64.0,-82.0,47.0,95.0,-132.0,58.0
-4.0,-142.0,-78.0,4.0,-12.0,38.0,-185.0,89.0
9.0,-202.0,-89.0,-1.0,-32.0,107.0,-155.0,79.0
14.0,-46.0,-79.0,28.0,-67.0,160.0,-100.0,19.0
28.0,95.0,-46.0,-9.0,-34.0,180.0,-30.0,157.0
0.0,90.0,-24.0,-64.0,-108.0,148.0,-25.0,320.0
25.0,160.0,23.0,37.0,-234.0,163.0,9.0,261.0
1.0,62.0,11.0,-8.0,-205.0,200.0,-4.0,153.0
-22.0,-57.0,12.0,-28.0,-160.0,183.0,-134.0,-8.0
33.0,120.0,37.0,-132.0,-48.0,178.0,-72.0,-46.0
29.0,106.0,17.0,-160.0,67.0,115.0,32.0,-9.0
7.0,51.0,55.0,75.0,144.0,5.0,50.0,-97.0
-17.0,217.0,52.0,195.0,137.0,-68.0,89.0,-247.0
-23.0,416.0,36.0,270.0,128.0,2.0,88.0,-294.0
-13.0,790.0,28.0,155.0,119.0,58.0,66.0,-210.0
-8.0,796.0,-3.0,109.0,92.0,15.0,54.0,-257.0
-2.0,182.0,-8.0,175.0,88.0,24.0,56.0,-71.0
-2.0,-413.0,-14.0,80.0,67.0,-23.0,34.0,293.0
13.0,-1005.0,-42.0,69.0,32.0,-10.0,-11.0,326.0
-2.0,-1457.0,-46.0,106.0,-16.0,39.0,40.0,243.0
-12.0,-1525.0,-22.0,105.0,-33.0,87.0,-20.0,261.0
27.0,-1268.0,-37.0,301.0,-64.0,97.0,-298.0,373.0
38.0,-876.0,-37.0,496.0,-80.0,105.0,-481.0,340.0
2.0,-166.0,-22.0,132.0,-52.0,197.0,-338.0,332.0
-18.0,672.0,-14.0,-293.0,-69.0,256.0,-35.0,564.0
-71.0,717.0,7.0,-594.0,-105.0,210.0,138.0,513.0
-93.0,780.0,26.0,-819.0,-114.0,137.0,282.0,44.0
-81.0,640.0,14.0,-761.0,-118.0,73.0,249.0,-572.0
-39.0,311.0,-9.0,-711.0,-92.0,22.0,214.0,-862.0
-5.0,294.0,-15.0,-458.0,-82.0,44.0,248.0,-646.0
-6.0,173.0,-53.0,-158.0,-125.0,-48.0,37.0,-443.0
-16.0,118.0,-66.0,60.0,-170.0,-94.0,-145.0,-207.0
-8.0,56.0,-49.0,192.0,-168.0,-24.0,-91.0,329.0
12.0,93.0,-37.0,199.0,-111.0,-6.0,54.0,564.0
5.0,66.0,-22.0,156.0,-91.0,54.0,25.0,264.0
14.0,43.0,-9.0,257.0,-112.0,77.0,87.0,344.0
-18.0,124.0,-2.0,240.0,-117.0,94.0,151.0,781.0
-49.0,95.0,-18.0,183.0,-58.0,129.0,84.0,876.0
-53.0,64.0,-26.0,170.0,-23.0,170.0,23.0,772.0
-44.0,13.0,-12.0,54.0,-9.0,207.0,-10.0,518.0
-51.0,-84.0,-9.0,139.0,35.0,228.0,-78.0,259.0
-24.0,-142.0,-10.0,145.0,70.0,246.0,-83.0,377.0
12.0,-46.0,-1.0,103.0,114.0,268.0,86.0,719.0
13.0,41.0,-14.0,7.0,141.0,319.0,91.0,286.0
25.0,43.0,-1.0,-36.0,137.0,343.0,85.0,-529.0
5.0,16.0,7.0,40.0,97.0,329.0,-35.0,-604.0
17.0,-24.0,-10.0,49.0,44.0,283.0,-240.0,-514.0
13.0,-42.0,-25.0,37.0,44.0,225.0,-304.0,-1058.0
25.0,-86.0,-14.0,-34.0,74.0,220.0,-227.0,-572.0
37.0,-148.0,17.0,22.0,87.0,283.0,-131.0,8.0
0.0,-137.0,1.0,15.0,28.0,214.0,21.0,-614.0
-53.0,-157.0,16.0,-4.0,-12.0,132.0,147.0,-679.0
-61.0,-161.0,41.0,-37.0,-5.0,97.0,-129.0,-693.0
14.0,-65.0,30.0,-52.0,-7.0,48.0,-227.0,-715.0
11.0,-14.0,31.0,15.0,-15.0,2.0,-74.0,-622.0
-2.0,7.0,3.0,42.0,-77.0,-20.0,126.0,-980.0
0.0,48.0,-21.0,67.0,-110.0,-69.0,207.0,-1384.0
-17.0,65.0,-4.0,51.0,-24.0,-72.0,134.0,-710.0
-8.0,42.0,12.0,95.0,123.0,-13.0,139.0,340.0
-16.0,79.0,15.0,25.0,157.0,23.0,81.0,932.0
4.0,182.0,-13.0,39.0,213.0,67.0,51.0,1446.0
-4.0,212.0,-50.0,187.0,261.0,-1.0,27.0,1446.0
-13.0,170.0,-9.0,170.0,219.0,-44.0,58.0,1527.0
16.0,81.0,18.0,-82.0,193.0,-87.0,116.0,1462.0
-23.0,233.0,-6.0,-263.0,122.0,-261.0,145.0,1142.0
-20.0,469.0,-14.0,-383.0,98.0,-354.0,138.0,536.0
-13.0,355.0,2.0,-652.0,82.0,-273.0,128.0,21.0
-27.0,213.0,35.0,-589.0,45.0,-167.0,158.0,-35.0
-4.0,50.0,53.0,-513.0,20.0,-140.0,109.0,-92.0
-33.0,-208.0,31.0,-397.0,18.0,-16.0,40.0,-185.0
-33.0,-340.0,-39.0,-351.0,21.0,44.0,22.0,-92.0
-8.0,-404.0,-29.0,-97.0,53.0,-113.0,22.0,409.0
26.0,-454.0,23.0,186.0,114.0,-221.0,0.0,422.0
-5.0,-404.0,28.0,69.0,148.0,-169.0,-42.0,499.0
-33.0,-202.0,26.0,29.0,165.0,-98.0,-80.0,499.0
11.0,-79.0,16.0,-137.0,163.0,-34.0,-91.0,395.0
-10.0,-66.0,11.0,-113.0,133.0,35.0,-110.0,158.0
-3.0,5.0,8.0,40.0,102.0,118.0,-90.0,-282.0
10.0,-12.0,-7.0,123.0,141.0,266.0,-59.0,11.0
5.0,2.0,3.0,199.0,130.0,262.0,-65.0,304.0
1.0,45.0,-5.0,91.0,136.0,130.0,-98.0,292.0
5.0,63.0,-14.0,3.0,131.0,163.0,-161.0,151.0
10.0,70.0,-36.0,-6.0,84.0,49.0,-93.0,241.0
-16.0,117.0,-49.0,80.0,45.0,-161.0,-62.0,360.0
15.0,252.0,9.0,276.0,-15.0,-94.0,-15.0,189.0
15.0,391.0,24.0,368.0,-65.0,80.0,90.0,491.0
14.0,443.0,24.0,300.0,-49.0,129.0,10.0,1334.0
21.0,449.0,-1.0,337.0,26.0,246.0,18.0,1639.0
0.0,338.0,-25.0,317.0,23.0,254.0,35.0,1317.0
11.0,162.0,-15.0,583.0,60.0,166.0,11.0,1045.0
24.0,-31.0,9.0,1144.0,114.0,166.0,27.0,286.0
21.0,-310.0,2.0,980.0,53.0,-106.0,2.0,-1148.0
-16.0,-347.0,-1.0,105.0,8.0,-194.0,6.0,-2253.0
-34.0,-419.0,20.0,-586.0,-3.0,-285.0,-27.0,-2347.0
-42.0,-558.0,-7.0,-855.0,-23.0,-535.0,-44.0,-2049.0
-34.0,-295.0,-13.0,-962.0,-13.0,-641.0,-4.0,-2476.0
11.0,449.0,-28.0,-935.0,3.0,-576.0,41.0,-2415.0
-24.0,549.0,-39.0,-741.0,-5.0,-423.0,21.0,-1579.0
-67.0,208.0,-42.0,-427.0,-63.0,-338.0,-6.0,-1018.0
-91.0,264.0,-76.0,-172.0,-156.0,-194.0,-43.0,-804.0
-90.0,-182.0,-116.0,102.0,-346.0,-174.0,-89.0,-1148.0
-66.0,-418.0,-104.0,245.0,-521.0,-135.0,53.0,-996.0
-26.0,-495.0,-66.0,203.0,-515.0,-43.0,167.0,-803.0
-1.0,-856.0,-80.0,246.0,-523.0,-49.0,158.0,-730.0
-25.0,-705.0,-74.0,245.0,-612.0,-114.0,229.0,-217.0
-67.0,-402.0,-71.0,102.0,-593.0,-247.0,233.0,-53.0
-64.0,-383.0,-60.0,91.0,-502.0,-275.0,107.0,-24.0
-28.0,-228.0,-38.0,56.0,-328.0,-240.0,36.0,-58.0
-27.0,28.0,-27.0,-74.0,-148.0,-156.0,-62.0,-23.0
9.0,105.0,-3.0,-93.0,-29.0,107.0,-110.0,-144.0
4.0,200.0,-1.0,3.0,0.0,368.0,14.0,-543.0
2.0,326.0,20.0,68.0,-27.0,376.0,21.0,-648.0
4.0,381.0,33.0,6.0,-42.0,348.0,5.0,-496.0
-10.0,355.0,-2.0,9.0,-107.0,401.0,86.0,-162.0
-5.0,215.0,-8.0,11.0,-140.0,309.0,65.0,707.0
31.0,73.0,4.0,-17.0,-67.0,234.0,142.0,1334.0
28.0,43.0,24.0,-32.0,38.0,58.0,189.0,1533.0
11.0,142.0,52.0,-71.0,30.0,-141.0,189.0,1533.0
35.0,212.0,60.0,-140.0,14.0,-224.0,143.0,1264.0
5.0,181.0,82.0,-128.0,56.0,-126.0,65.0,890.0
13.0,128.0,99.0,-88.0,171.0,164.0,87.0,196.0
32.0,143.0,115.0,-108.0,270.0,119.0,90.0,-380.0
37.0,205.0,112.0,-54.0,282.0,-19.0,107.0,-1037.0
37.0,208.0,122.0,-30.0,308.0,-100.0,106.0,-1904.0
30.0,160.0,142.0,-9.0,288.0,-203.0,87.0,-2392.0
31.0,98.0,146.0,10.0,314.0,-37.0,64.0,-1261.0
38.0,50.0,145.0,42.0,295.0,142.0,67.0,103.0
28.0,31.0,128.0,69.0,281.0,225.0,72.0,695.0
16.0,39.0,101.0,-29.0,338.0,361.0,48.0,1317.0
25.0,17.0,103.0,-69.0,379.0,441.0,21.0,1595.0
4.0,-59.0,77.0,-99.0,455.0,498.0,8.0,1697.0
37.0,-13.0,59.0,-87.0,419.0,476.0,41.0,1130.0
30.0,117.0,60.0,56.0,375.0,415.0,98.0,935.0
-37.0,129.0,9.0,33.0,280.0,336.0,80.0,609.0
-32.0,99.0,5.0,-95.0,180.0,195.0,148.0,-685.0
-78.0,95.0,-21.0,-132.0,98.0,15.0,326.0,-1449.0
-68.0,36.0,-57.0,-28.0,36.0,-190.0,226.0,-1826.0
-46.0,9.0,-74.0,4.0,15.0,-184.0,104.0,-1644.0
-66.0,-56.0,-94.0,-122.0,-55.0,-224.0,76.0,-389.0
-59.0,-77.0,-108.0,-158.0,-187.0,-333.0,37.0,459.0
-56.0,-63.0,-119.0,-159.0,-346.0,-358.0,29.0,465.0
-11.0,-55.0,-115.0,-88.0,-356.0,-516.0,5.0,450.0
-24.0,-42.0,-96.0,171.0,-384.0,-575.0,33.0,338.0
-51.0,-94.0,-119.0,325.0,-379.0,-535.0,42.0,352.0
-48.0,-95.0,-150.0,227.0,-337.0,-546.0,46.0,526.0
-41.0,-39.0,-93.0,122.0,-299.0,-657.0,27.0,719.0
-28.0,111.0,-87.0,-57.0,-199.0,-797.0,47.0,666.0
-39.0,298.0,-87.0,-198.0,-201.0,-816.0,80.0,580.0
-27.0,355.0,-95.0,-226.0,-208.0,-685.0,37.0,731.0
-38.0,103.0,-98.0,-227.0,-280.0,-685.0,67.0,666.0
-29.0,-89.0,-80.0,-282.0,-402.0,-852.0,84.0,731.0
-28.0,-202.0,-96.0,-241.0,-490.0,-940.0,96.0,941.0
-24.0,-310.0,-66.0,25.0,-530.0,-721.0,110.0,992.0
-12.0,-333.0,-85.0,167.0,-449.0,-289.0,50.0,751.0
-6.0,-379.0,-66.0,109.0,-425.0,-68.0,-104.0,319.0
9.0,-318.0,-33.0,12.0,-321.0,201.0,-274.0,-87.0
-4.0,-87.0,-25.0,-39.0,-250.0,319.0,-351.0,67.0
19.0,102.0,-15.0,-122.0,-155.0,361.0,-383.0,609.0
37.0,23.0,-15.0,-299.0,-16.0,684.0,-477.0,569.0
27.0,-137.0,-47.0,-296.0,97.0,944.0,-489.0,304.0
24.0,-261.0,-39.0,-146.0,318.0,837.0,-420.0,31.0
24.0,-160.0,-3.0,99.0,411.0,597.0,-353.0,-101.0
24.0,-157.0,-17.0,309.0,528.0,301.0,-224.0,81.0
35.0,-125.0,13.0,720.0,575.0,172.0,-200.0,304.0
23.0,21.0,20.0,1045.0,602.0,133.0,-114.0,629.0
30.0,152.0,18.0,451.0,607.0,126.0,31.0,660.0
37.0,225.0,34.0,-24.0,448.0,225.0,160.0,601.0
-11.0,175.0,31.0,-481.0,318.0,169.0,213.0,304.0
16.0,290.0,30.0,-660.0,314.0,259.0,197.0,-401.0
1.0,321.0,24.0,-513.0,354.0,358.0,194.0,-443.0
-39.0,288.0,3.0,-440.0,310.0,526.0,217.0,23.0
-18.0,338.0,14.0,41.0,403.0,636.0,256.0,-142.0
-8.0,355.0,10.0,298.0,462.0,659.0,179.0,-730.0
-36.0,225.0,23.0,459.0,466.0,837.0,111.0,-610.0
-13.0,117.0,77.0,490.0,519.0,1006.0,203.0,-108.0
-2.0,-58.0,30.0,258.0,547.0,938.0,248.0,-71.0
-54.0,-360.0,7.0,199.0,596.0,739.0,203.0,-25.0
-45.0,-444.0,13.0,156.0,544.0,713.0,283.0,51.0
-55.0,-640.0,-13.0,12.0,480.0,628.0,348.0,0.0
-68.0,-658.0,9.0,-65.0,420.0,490.0,326.0,23.0
-73.0,-271.0,-25.0,-185.0,395.0,433.0,274.0,-93.0
-21.0,168.0,15.0,-171.0,320.0,262.0,291.0,-88.0
-17.0,592.0,20.0,-193.0,190.0,11.0,326.0,-118.0
-17.0,542.0,4.0,-172.0,74.0,-56.0,271.0,-290.0
-13.0,208.0,8.0,-52.0,24.0,24.0,348.0,-683.0
-28.0,14.0,-24.0,-86.0,63.0,-4.0,368.0,-973.0
9.0,-196.0,-1.0,36.0,41.0,56.0,311.0,-441.0
-20.0,-69.0,-14.0,59.0,154.0,214.0,283.0,-112.0
-5.0,37.0,-8.0,31.0,178.0,326.0,220.0,-673.0
21.0,-31.0,-5.0,29.0,187.0,427.0,208.0,-863.0
35.0,81.0,9.0,-104.0,275.0,551.0,181.0,-322.0
34.0,56.0,-5.0,-98.0,200.0,504.0,89.0,-170.0
7.0,-102.0,-6.0,-26.0,200.0,341.0,39.0,-187.0
27.0,-160.0,10.0,2.0,103.0,200.0,-41.0,-13.0
10.0,-232.0,39.0,138.0,103.0,13.0,-137.0,-126.0
17.0,-287.0,54.0,138.0,235.0,-101.0,-63.0,-133.0
30.0,-230.0,4.0,69.0,182.0,-149.0,52.0,-24.0
3.0,-220.0,-1.0,125.0,128.0,-289.0,2.0,21.0
-8.0,-23.0,7.0,65.0,47.0,-485.0,35.0,302.0
-30.0,239.0,-22.0,-153.0,-77.0,-639.0,34.0,499.0
-31.0,256.0,-2.0,-98.0,-160.0,-594.0,1.0,396.0
-26.0,213.0,4.0,-6.0,-242.0,-262.0,33.0,373.0
-24.0,162.0,5.0,-109.0,-186.0,36.0,50.0,569.0
-24.0,71.0,14.0,-163.0,-67.0,4.0,91.0,1142.0
-35.0,-40.0,6.0,-174.0,-58.0,-373.0,61.0,1525.0
4.0,-179.0,18.0,-137.0,-75.0,-650.0,145.0,1411.0
16.0,-179.0,14.0,-56.0,-140.0,-928.0,138.0,1130.0
13.0,-56.0,-3.0,19.0,-83.0,-1257.0,25.0,597.0
18.0,25.0,-5.0,-65.0,-131.0,-1257.0,-16.0,645.0
0.0,155.0,-14.0,-133.0,-215.0,-1096.0,-76.0,1006.0
-30.0,167.0,-26.0,-19.0,-164.0,-825.0,-36.0,654.0
-11.0,121.0,-36.0,80.0,-205.0,-816.0,-27.0,271.0
-20.0,90.0,-14.0,37.0,-181.0,-1200.0,-54.0,13.0
-20.0,51.0,-1.0,-33.0,-215.0,-1598.0,-34.0,-175.0
36.0,26.0,-30.0,-128.0,-225.0,-1814.0,-9.0,613.0
2.0,19.0,14.0,-187.0,-163.0,-1766.0,40.0,1372.0
-3.0,34.0,43.0,-116.0,-164.0,-1636.0,18.0,1512.0
-5.0,0.0,16.0,-109.0,-164.0,-1440.0,33.0,1650.0
-27.0,105.0,-1.0,-206.0,-118.0,-1106.0,93.0,1468.0
-15.0,150.0,3.0,-239.0,34.0,-786.0,81.0,1195.0
-41.0,98.0,34.0,-169.0,298.0,-550.0,106.0,896.0
-45.0,93.0,18.0,2.0,432.0,-283.0,-41.0,788.0
-8.0,63.0,17.0,179.0,526.0,-258.0,-283.0,634.0
-14.0,-48.0,18.0,459.0,575.0,-358.0,-507.0,95.0
12.0,-133.0,32.0,655.0,496.0,-271.0,-733.0,-492.0
23.0,-135.0,27.0,394.0,402.0,-52.0,-780.0,-537.0
2.0,-179.0,7.0,204.0,261.0,241.0,-723.0,190.0
-12.0,-47.0,26.0,20.0,112.0,214.0,-737.0,393.0
33.0,162.0,3.0,-193.0,-85.0,127.0,-762.0,83.0
45.0,142.0,-3.0,-226.0,-295.0,56.0,-729.0,-301.0
-21.0,65.0,-23.0,-212.0,-425.0,-83.0,-717.0,-577.0
9.0,149.0,-40.0,-9.0,-533.0,-33.0,-688.0,-687.0
-17.0,36.0,-50.0,-51.0,-608.0,180.0,-666.0,-644.0
-33.0,-24.0,-85.0,-263.0,-614.0,432.0,-583.0,-218.0
-40.0,-22.0,-99.0,-328.0,-598.0,528.0,-442.0,-108.0
-54.0,-37.0,-50.0,-445.0,-458.0,563.0,-352.0,-79.0
-13.0,-12.0,-31.0,-417.0,-425.0,693.0,-247.0,-392.0
-23.0,-11.0,-15.0,-445.0,-486.0,945.0,-186.0,-919.0
1.0,180.0,-9.0,-371.0,-425.0,947.0,-101.0,-1255.0
1.0,314.0,-47.0,-299.0,-429.0,831.0,-23.0,-1697.0
-21.0,215.0,-24.0,-150.0,-392.0,771.0,28.0,-1578.0
-17.0,15.0,-17.0,138.0,-425.0,494.0,105.0,-1018.0
-17.0,-179.0,-13.0,87.0,-446.0,358.0,167.0,-794.0
-7.0,-383.0,-5.0,106.0,-409.0,293.0,191.0,-948.0
-11.0,-568.0,-17.0,123.0,-376.0,180.0,256.0,-1050.0
-4.0,-727.0,11.0,181.0,-395.0,321.0,294.0,-1180.0
32.0,-627.0,24.0,305.0,-486.0,391.0,297.0,-1213.0
31.0,-60.0,38.0,276.0,-514.0,273.0,325.0,-1261.0
38.0,355.0,71.0,125.0,-608.0,339.0,309.0,-1310.0
18.0,460.0,77.0,-26.0,-573.0,510.0,403.0,-1188.0
-13.0,389.0,37.0,44.0,-608.0,571.0,464.0,-1105.0
7.0,263.0,43.0,373.0,-608.0,608.0,441.0,-953.0
1.0,241.0,49.0,655.0,-542.0,576.0,464.0,-818.0
7.0,305.0,27.0,394.0,-543.0,628.0,433.0,-649.0
24.0,443.0,6.0,-72.0,-602.0,596.0,350.0,-627.0
-6.0,388.0,-39.0,-433.0,-709.0,358.0,282.0,-730.0
9.0,311.0,-31.0,-571.0,-686.0,234.0,274.0,-781.0
-14.0,184.0,-8.0,-429.0,-653.0,131.0,278.0,-796.0
-12.0,-35.0,-24.0,-319.0,-667.0,84.0,238.0,-846.0
-18.0,-302.0,-36.0,-107.0,-803.0,81.0,181.0,-948.0
-24.0,-502.0,-3.0,210.0,-751.0,93.0,178.0,-906.0
-8.0,-437.0,-22.0,337.0,-533.0,152.0,184.0,-1013.0
-36.0,-346.0,-53.0,199.0,-443.0,321.0,120.0,-1200.0
-23.0,-183.0,-40.0,157.0,-616.0,608.0,29.0,-1681.0
-21.0,-151.0,-22.0,37.0,-862.0,734.0,-5.0,-2165.0
-21.0,-190.0,-24.0,-97.0,-921.0,756.0,-4.0,-1782.0
-48.0,-111.0,-30.0,33.0,-1055.0,719.0,-36.0,-1274.0
-55.0,-20.0,-48.0,112.0,-1129.0,641.0,-55.0,-404.0
-24.0,95.0,-50.0,128.0,-1077.0,469.0,-40.0,321.0
-27.0,170.0,-38.0,56.0,-942.0,256.0,-58.0,249.0
-23.0,243.0,-45.0,57.0,-770.0,197.0,-8.0,569.0
-32.0,200.0,-37.0,2.0,-724.0,141.0,12.0,645.0
-39.0,49.0,-17.0,-1.0,-602.0,41.0,36.0,686.0
-66.0,-76.0,-26.0,1.0,-659.0,-82.0,124.0,890.0
-82.0,-149.0,-43.0,-36.0,-528.0,-138.0,172.0,1077.0
-64.0,-149.0,-30.0,-10.0,-321.0,-204.0,246.0,1156.0
-39.0,-55.0,-27.0,-47.0,-209.0,-354.0,260.0,811.0
-28.0,116.0,-40.0,-36.0,49.0,-384.0,232.0,589.0
8.0,388.0,-40.0,-103.0,171.0,-224.0,236.0,629.0
7.0,279.0,-40.0,-198.0,261.0,-42.0,336.0,550.0
-18.0,-198.0,-21.0,-227.0,205.0,102.0,362.0,426.0
-21.0,-469.0,31.0,-141.0,119.0,137.0,294.0,361.0
-15.0,-753.0,18.0,-129.0,193.0,136.0,315.0,192.0
24.0,-670.0,26.0,-131.0,406.0,168.0,281.0,153.0
14.0,-287.0,37.0,-88.0,614.0,193.0,278.0,228.0
-21.0,22.0,52.0,51.0,575.0,196.0,350.0,460.0
15.0,386.0,67.0,210.0,424.0,246.0,291.0,536.0
3.0,572.0,28.0,126.0,320.0,365.0,259.0,621.0
8.0,516.0,3.0,104.0,328.0,403.0,170.0,783.0
47.0,359.0,-3.0,164.0,414.0,406.0,130.0,507.0
23.0,240.0,26.0,142.0,651.0,329.0,152.0,680.0
31.0,106.0,6.0,64.0,961.0,183.0,32.0,1241.0
-27.0,-18.0,-2.0,-5.0,1051.0,-29.0,5.0,1381.0
-39.0,-215.0,13.0,-30.0,1059.0,-204.0,-51.0,1307.0
-1.0,-272.0,-13.0,-53.0,1189.0,-216.0,-75.0,850.0
-15.0,-121.0,16.0,-116.0,1401.0,-171.0,-94.0,3.0
36.0,5.0,24.0,-157.0,1509.0,-107.0,-92.0,-594.0
28.0,56.0,23.0,-255.0,1417.0,-102.0,-89.0,-1534.0
12.0,49.0,28.0,-271.0,1473.0,-22.0,-143.0,-1774.0
10.0,24.0,-18.0,-200.0,1592.0,248.0,-129.0,-1127.0
-25.0,-52.0,-6.0,-124.0,1669.0,337.0,-135.0,-1325.0
-3.0,-40.0,1.0,72.0,1604.0,133.0,-98.0,-1126.0
-11.0,-4.0,10.0,245.0,1443.0,70.0,-98.0,-284.0
-2.0,16.0,-21.0,248.0,1266.0,-42.0,-112.0,69.0
6.0,27.0,-43.0,116.0,1183.0,-179.0,-106.0,518.0
-1.0,13.0,-32.0,20.0,1083.0,-163.0,-90.0,846.0
-8.0,67.0,-33.0,-9.0,941.0,-266.0,-68.0,765.0
-9.0,91.0,-12.0,-45.0,929.0,-419.0,-10.0,765.0
21.0,91.0,-5.0,-151.0,961.0,-485.0,124.0,890.0
28.0,95.0,30.0,-150.0,953.0,-423.0,113.0,1026.0
21.0,132.0,26.0,-214.0,961.0,-459.0,26.0,831.0
1.0,163.0,18.0,-126.0,1026.0,-255.0,28.0,947.0
0.0,89.0,11.0,-18.0,870.0,0.0,-46.0,1032.0
6.0,-39.0,-3.0,-12.0,586.0,24.0,-97.0,919.0
29.0,-47.0,-10.0,52.0,307.0,90.0,-106.0,860.0
7.0,-83.0,3.0,-11.0,228.0,105.0,-244.0,564.0
-28.0,-131.0,-12.0,-9.0,195.0,172.0,-332.0,236.0
-5.0,81.0,7.0,32.0,-37.0,203.0,-359.0,-1.0
-1.0,148.0,51.0,84.0,-75.0,126.0,-373.0,22.0
-7.0,102.0,3.0,16.0,-187.0,152.0,-145.0,-59.0
-29.0,95.0,30.0,-6.0,-205.0,256.0,86.0,-86.0
-38.0,33.0,24.0,99.0,-162.0,293.0,-12.0,-175.0
-21.0,-55.0,-9.0,109.0,-19.0,293.0,24.0,-95.0
-14.0,-143.0,13.0,116.0,320.0,319.0,63.0,-18.0
-3.0,-37.0,-23.0,488.0,471.0,276.0,21.0,-514.0
-25.0,-1.0,-22.0,771.0,562.0,180.0,80.0,-407.0
-50.0,29.0,-7.0,382.0,570.0,148.0,50.0,247.0
-33.0,40.0,-54.0,-29.0,496.0,87.0,52.0,425.0
-44.0,-107.0,-86.0,-421.0,440.0,107.0,86.0,550.0
-36.0,-144.0,-72.0,-696.0,179.0,228.0,107.0,784.0
-34.0,-88.0,-16.0,-900.0,-44.0,132.0,71.0,817.0
-48.0,-12.0,15.0,-810.0,3.0,61.0,81.0,772.0
-67.0,-77.0,-15.0,-409.0,134.0,13.0,72.0,531.0
-55.0,-137.0,-46.0,-159.0,302.0,-128.0,56.0,357.0
-23.0,-173.0,-34.0,-93.0,245.0,-91.0,25.0,37.0
-44.0,-169.0,-45.0,-82.0,375.0,-10.0,23.0,-356.0
-39.0,-82.0,-62.0,56.0,395.0,57.0,30.0,-758.0
-25.0,-26.0,-50.0,-55.0,180.0,69.0,1.0,-1013.0
-42.0,69.0,-44.0,-106.0,-33.0,-115.0,30.0,-549.0
-38.0,64.0,-38.0,-73.0,55.0,-179.0,18.0,200.0
-39.0,135.0,-12.0,-50.0,532.0,-346.0,8.0,361.0
-16.0,207.0,0.0,81.0,672.0,-442.0,7.0,108.0
-6.0,225.0,-25.0,308.0,902.0,-56.0,7.0,51.0
5.0,225.0,-36.0,390.0,758.0,217.0,-16.0,127.0
14.0,147.0,-12.0,144.0,635.0,343.0,1.0,296.0
12.0,44.0,0.0,-52.0,570.0,441.0,18.0,235.0
25.0,-46.0,32.0,-237.0,308.0,311.0,34.0,275.0
15.0,-129.0,27.0,-366.0,479.0,145.0,-14.0,155.0
21.0,-287.0,31.0,-290.0,549.0,-79.0,-102.0,72.0
14.0,-397.0,53.0,-153.0,497.0,-273.0,-27.0,108.0
29.0,-310.0,24.0,52.0,298.0,-318.0,-32.0,-168.0
25.0,-156.0,47.0,283.0,253.0,-289.0,-48.0,-169.0
14.0,-114.0,42.0,238.0,229.0,-200.0,-16.0,-14.0
24.0,-20.0,43.0,320.0,11.0,-224.0,-18.0,-5.0
24.0,114.0,64.0,325.0,-376.0,-151.0,-1.0,-95.0
7.0,180.0,11.0,75.0,-1012.0,166.0,-16.0,-193.0
-11.0,203.0,12.0,121.0,-1432.0,554.0,-16.0,-311.0
-43.0,331.0,14.0,115.0,-1951.0,522.0,14.0,-95.0
-52.0,587.0,15.0,46.0,-2651.0,129.0,-19.0,210.0
7.0,533.0,37.0,18.0,-3054.0,25.0,-22.0,126.0
20.0,459.0,39.0,50.0,-3315.0,107.0,-22.0,59.0
8.0,359.0,24.0,97.0,-3327.0,172.0,-39.0,273.0
14.0,55.0,16.0,87.0,-3701.0,145.0,-18.0,491.0
19.0,-165.0,24.0,98.0,-4000.0,26.0,-22.0,450.0
32.0,-460.0,26.0,105.0,-4000.0,27.0,-22.0,397.0
27.0,-770.0,26.0,134.0,-4000.0,56.0,-17.0,666.0
3.0,-822.0,14.0,122.0,-3898.0,-209.0,-8.0,1112.0
30.0,-576.0,10.0,87.0,-3391.0,-394.0,6.0,1012.0
6.0,-391.0,-7.0,-83.0,-2935.0,-358.0,-7.0,438.0
-7.0,-69.0,4.0,-189.0,-2389.0,-161.0,-17.0,-354.0
9.0,135.0,-14.0,-211.0,-1369.0,-29.0,24.0,-1039.0
-3.0,136.0,5.0,-190.0,-291.0,-123.0,104.0,-1280.0
16.0,208.0,19.0,-190.0,823.0,155.0,120.0,-627.0
-31.0,129.0,-29.0,-175.0,2085.0,321.0,85.0,302.0
-30.0,132.0,-7.0,-111.0,2955.0,326.0,120.0,242.0
-33.0,144.0,-28.0,-2.0,3595.0,361.0,153.0,158.0
-78.0,65.0,-15.0,255.0,4000.0,195.0,130.0,-34.0
-45.0,43.0,-9.0,152.0,4000.0,237.0,110.0,-175.0
-21.0,102.0,-21.0,175.0,4000.0,278.0,132.0,6.0
-17.0,85.0,-11.0,214.0,4000.0,152.0,74.0,189.0
-11.0,-3.0,-44.0,129.0,4000.0,133.0,21.0,434.0
-6.0,34.0,-31.0,174.0,4000.0,-52.0,94.0,379.0
24.0,102.0,-8.0,51.0,3789.0,-216.0,97.0,308.0
7.0,99.0,2.0,204.0,3493.0,-171.0,-17.0,200.0
18.0,102.0,18.0,152.0,3526.0,-167.0,-122.0,319.0
39.0,154.0,10.0,34.0,3150.0,-144.0,58.0,397.0
38.0,194.0,2.0,-67.0,2842.0,-172.0,402.0,145.0
-5.0,189.0,0.0,-314.0,2320.0,-198.0,424.0,-120.0
-50.0,225.0,-25.0,-387.0,1704.0,1.0,362.0,-93.0
12.0,318.0,-11.0,-433.0,1417.0,155.0,284.0,286.0
0.0,241.0,-19.0,-421.0,651.0,193.0,152.0,255.0
-21.0,168.0,-60.0,-513.0,-240.0,274.0,113.0,-49.0
-18.0,45.0,-74.0,-484.0,-742.0,137.0,35.0,-226.0
-35.0,-131.0,-52.0,-249.0,-1194.0,-43.0,-8.0,-50.0
-7.0,-278.0,-21.0,37.0,-1665.0,-595.0,-65.0,236.0
5.0,-479.0,-25.0,558.0,-2354.0,-1318.0,-114.0,275.0
-5.0,-576.0,-11.0,923.0,-2561.0,-1172.0,-135.0,340.0
-9.0,-379.0,-43.0,465.0,-2753.0,-650.0,-149.0,69.0
3.0,-94.0,-31.0,3.0,-2843.0,-195.0,-79.0,-627.0
-3.0,-74.0,-21.0,-214.0,-2859.0,347.0,-51.0,-1390.0
-8.0,11.0,-26.0,-421.0,-3380.0,608.0,-78.0,-1213.0
-3.0,152.0,-9.0,-356.0,-3539.0,586.0,-101.0,-443.0
-10.0,268.0,-45.0,-498.0,-3844.0,413.0,-61.0,-37.0
-46.0,412.0,-40.0,-388.0,-4000.0,176.0,-19.0,174.0
-46.0,262.0,-20.0,-113.0,-4000.0,-59.0,-10.0,361.0
-61.0,5.0,-24.0,20.0,-4000.0,-157.0,44.0,616.0
-61.0,-203.0,-14.0,31.0,-4000.0,105.0,48.0,279.0
-42.0,-373.0,-4.0,67.0,-4000.0,208.0,74.0,-13.0
-47.0,-247.0,24.0,56.0,-3575.0,310.0,110.0,241.0
-5.0,-72.0,30.0,-290.0,-2496.0,366.0,49.0,556.0
-23.0,150.0,-6.0,-436.0,-1489.0,69.0,22.0,547.0
-20.0,254.0,-3.0,-397.0,-351.0,-129.0,24.0,61.0
16.0,189.0,1.0,-224.0,393.0,-22.0,30.0,75.0
-9.0,196.0,13.0,132.0,784.0,167.0,90.0,-348.0
-33.0,18.0,26.0,442.0,1265.0,197.0,54.0,-1259.0
-32.0,-110.0,10.0,564.0,1352.0,109.0,70.0,-1439.0
-22.0,-171.0,-13.0,777.0,1097.0,246.0,107.0,-866.0
-5.0,-247.0,-40.0,858.0,1018.0,498.0,67.0,-166.0
12.0,-202.0,-26.0,341.0,716.0,432.0,152.0,-58.0
10.0,80.0,-11.0,13.0,766.0,217.0,158.0,161.0
-9.0,235.0,3.0,-75.0,953.0,53.0,319.0,361.0
-12.0,160.0,5.0,-187.0,528.0,126.0,368.0,332.0
1.0,111.0,10.0,-227.0,415.0,205.0,236.0,53.0
8.0,22.0,-1.0,-346.0,725.0,143.0,374.0,-305.0
29.0,90.0,-53.0,-466.0,758.0,36.0,315.0,-258.0
27.0,90.0,-17.0,-458.0,896.0,-185.0,297.0,-175.0
-8.0,0.0,0.0,-252.0,781.0,-255.0,391.0,100.0
16.0,36.0,-3.0,-60.0,-425.0,-175.0,321.0,368.0
-4.0,-24.0,-6.0,-24.0,-1044.0,-104.0,290.0,261.0
-28.0,-29.0,-13.0,30.0,-818.0,-1.0,303.0,15.0
-27.0,-114.0,-2.0,92.0,-440.0,189.0,321.0,-386.0
-13.0,-167.0,-30.0,71.0,32.0,196.0,268.0,-327.0
3.0,-209.0,-23.0,34.0,139.0,38.0,208.0,249.0
-39.0,-503.0,-8.0,-9.0,399.0,30.0,152.0,276.0
-5.0,-530.0,0.0,-65.0,771.0,-141.0,132.0,144.0
-40.0,-358.0,13.0,-48.0,1409.0,-221.0,105.0,279.0
-36.0,-79.0,-3.0,-22.0,2165.0,54.0,21.0,406.0
-31.0,-10.0,-21.0,23.0,2386.0,188.0,42.0,462.0
-62.0,-45.0,-22.0,142.0,2889.0,208.0,85.0,612.0
-5.0,99.0,-59.0,85.0,3410.0,237.0,-2.0,747.0
17.0,151.0,-36.0,75.0,3147.0,329.0,2.0,654.0
-2.0,213.0,-3.0,131.0,2943.0,492.0,104.0,483.0
-7.0,346.0,-15.0,103.0,2838.0,619.0,58.0,239.0
-12.0,518.0,-3.0,77.0,2125.0,628.0,45.0,34.0
-6.0,446.0,-11.0,-88.0,1574.0,445.0,78.0,37.0
33.0,355.0,30.0,-182.0,953.0,162.0,59.0,7.0
61.0,298.0,53.0,-88.0,778.0,-238.0,4.0,-124.0
41.0,117.0,39.0,-110.0,420.0,-470.0,-10.0,-247.0
22.0,-17.0,8.0,-244.0,-967.0,-466.0,-53.0,-427.0
5.0,-215.0,0.0,-177.0,-983.0,-535.0,-110.0,-471.0
-14.0,-287.0,-12.0,-33.0,-742.0,-485.0,-19.0,-492.0
4.0,-136.0,-37.0,6.0,-1056.0,-275.0,-90.0,-736.0
-14.0,33.0,-17.0,64.0,-1142.0,-138.0,-154.0,-1105.0
-2.0,48.0,-15.0,152.0,-1600.0,-207.0,-211.0,-1213.0
3.0,46.0,-2.0,251.0,-1552.0,-155.0,-171.0,-605.0
-16.0,41.0,-1.0,276.0,-1055.0,29.0,-176.0,-96.0
-3.0,27.0,-8.0,106.0,-65.0,26.0,-224.0,119.0
-24.0,73.0,-50.0,-63.0,432.0,24.0,-147.0,515.0
-20.0,36.0,-53.0,-49.0,522.0,-336.0,-247.0,955.0
-8.0,8.0,-29.0,-69.0,109.0,-489.0,-318.0,1307.0
-19.0,-98.0,-29.0,-21.0,-156.0,-214.0,-385.0,1373.0
-31.0,-79.0,21.0,72.0,432.0,-338.0,-410.0,1307.0
4.0,-28.0,34.0,236.0,1070.0,-277.0,-383.0,922.0
20.0,54.0,-12.0,242.0,1842.0,-61.0,-439.0,467.0
28.0,312.0,5.0,26.0,2057.0,44.0,-489.0,-9.0
30.0,321.0,39.0,161.0,2428.0,175.0,-424.0,-904.0
12.0,294.0,8.0,215.0,2354.0,84.0,-359.0,-2063.0
-14.0,93.0,6.0,51.0,1918.0,-135.0,-344.0,-1891.0
-24.0,-66.0,34.0,-17.0,2308.0,-266.0,-340.0,-431.0
-3.0,-56.0,45.0,-133.0,2748.0,-20.0,-247.0,136.0
-25.0,-236.0,30.0,-180.0,2581.0,480.0,-125.0,483.0
-16.0,-156.0,16.0,-229.0,2165.0,877.0,-194.0,654.0
7.0,91.0,34.0,-243.0,1853.0,1179.0,-163.0,548.0
-13.0,294.0,33.0,-263.0,1710.0,1083.0,-159.0,583.0
-11.0,156.0,4.0,-69.0,1323.0,745.0,-163.0,249.0
-12.0,-88.0,18.0,489.0,737.0,414.0,-29.0,-370.0
0.0,-30.0,7.0,472.0,692.0,149.0,-38.0,-1070.0
8.0,-164.0,-1.0,13.0,856.0,177.0,-73.0,-748.0
24.0,-509.0,-2.0,-279.0,766.0,152.0,-89.0,-280.0
24.0,-735.0,-25.0,-512.0,859.0,-66.0,-202.0,-418.0
17.0,-802.0,-2.0,-513.0,1387.0,-159.0,-154.0,-622.0
3.0,-677.0,-18.0,-498.0,1417.0,-159.0,-9.0,-116.0
-40.0,-72.0,-41.0,-417.0,1443.0,-174.0,28.0,961.0
-75.0,254.0,-48.0,-94.0,1824.0,-59.0,17.0,680.0
-73.0,460.0,-69.0,90.0,1995.0,-45.0,22.0,489.0
-65.0,550.0,-53.0,35.0,2308.0,-141.0,23.0,292.0
-92.0,222.0,-55.0,31.0,2451.0,-8.0,81.0,-99.0
-58.0,140.0,-37.0,77.0,2321.0,-9.0,38.0,37.0
-17.0,-44.0,-17.0,22.0,2556.0,-159.0,53.0,-168.0
-26.0,-166.0,-18.0,25.0,2240.0,-220.0,120.0,-467.0
-37.0,-11.0,-11.0,47.0,2085.0,-143.0,25.0,-605.0
-41.0,74.0,-40.0,128.0,2439.0,-182.0,355.0,-3.0
6.0,80.0,10.0,84.0,1669.0,-93.0,197.0,165.0
-12.0,64.0,11.0,-201.0,1142.0,67.0,-159.0,-175.0
-37.0,25.0,-6.0,-265.0,870.0,-23.0,183.0,116.0
-3.0,10.0,0.0,-214.0,1.0,-80.0,521.0,319.0
6.0,69.0,1.0,-93.0,-1207.0,-151.0,602.0,131.0
10.0,44.0,20.0,68.0,-1701.0,-178.0,538.0,96.0
30.0,28.0,-26.0,189.0,-1169.0,-108.0,832.0,373.0
25.0,-39.0,-4.0,329.0,-1114.0,102.0,1396.0,467.0
-26.0,-101.0,-24.0,276.0,-812.0,217.0,2514.0,142.0
-34.0,-10.0,0.0,138.0,-476.0,368.0,2355.0,83.0
-16.0,87.0,31.0,-24.0,-158.0,554.0,903.0,129.0
-17.0,121.0,21.0,-51.0,163.0,641.0,376.0,60.0
47.0,118.0,36.0,-51.0,86.0,673.0,-393.0,33.0
32.0,105.0,7.0,-84.0,318.0,526.0,-933.0,-555.0
28.0,74.0,24.0,113.0,412.0,473.0,-846.0,-599.0
35.0,3.0,20.0,377.0,-280.0,372.0,-505.0,-166.0
-8.0,-55.0,-20.0,431.0,-429.0,237.0,-390.0,151.0
-12.0,-43.0,-36.0,255.0,226.0,243.0,-555.0,615.0
-10.0,2.0,-22.0,-18.0,-77.0,274.0,-782.0,153.0
-43.0,4.0,-48.0,-283.0,-486.0,256.0,-1048.0,26.0
-48.0,-79.0,-50.0,-393.0,-534.0,220.0,-973.0,319.0
-20.0,-135.0,-24.0,-458.0,-812.0,84.0,-620.0,169.0
-18.0,-106.0,20.0,-478.0,-788.0,-132.0,-262.0,361.0
7.0,-21.0,72.0,-351.0,-686.0,-354.0,-316.0,322.0
-6.0,-14.0,-8.0,-422.0,-360.0,-285.0,-527.0,257.0
5.0,22.0,-33.0,-277.0,285.0,1.0,-613.0,247.0
3.0,69.0,-10.0,6.0,528.0,17.0,-620.0,193.0
-32.0,1.0,-26.0,97.0,367.0,13.0,-621.0,229.0
-23.0,33.0,1.0,199.0,-37.0,-15.0,-592.0,199.0
-11.0,0.0,5.0,72.0,-245.0,-10.0,-447.0,230.0
3.0,-80.0,-12.0,11.0,-501.0,109.0,-417.0,165.0
-9.0,-43.0,-14.0,77.0,-840.0,15.0,-476.0,-20.0
11.0,58.0,-9.0,39.0,-990.0,-129.0,-448.0,-124.0
-18.0,200.0,3.0,59.0,-1304.0,-149.0,-314.0,-70.0
-4.0,266.0,2.0,81.0,-1129.0,-208.0,-207.0,79.0
7.0,201.0,9.0,99.0,-1185.0,-260.0,-79.0,169.0
-10.0,126.0,-2.0,55.0,-1638.0,-280.0,12.0,222.0
-1.0,77.0,-22.0,16.0,-1229.0,-262.0,30.0,210.0
-40.0,-25.0,-1.0,35.0,-856.0,-138.0,-20.0,156.0
-23.0,34.0,-3.0,12.0,-708.0,-119.0,97.0,140.0
1.0,-69.0,-9.0,22.0,-631.0,-145.0,138.0,-2.0
20.0,-77.0,8.0,10.0,-681.0,-81.0,99.0,-66.0
18.0,12.0,18.0,35.0,-549.0,-255.0,268.0,132.0
-10.0,-229.0,15.0,16.0,-465.0,-613.0,176.0,409.0
18.0,-220.0,-17.0,13.0,-429.0,-665.0,183.0,434.0
17.0,-354.0,-13.0,-14.0,-798.0,-463.0,236.0,422.0
20.0,-459.0,-14.0,-28.0,-1185.0,-410.0,217.0,396.0
15.0,-211.0,-6.0,41.0,-1190.0,-531.0,211.0,276.0
-8.0,10.0,11.0,71.0,-978.0,-500.0,211.0,491.0
-8.0,248.0,12.0,390.0,-1239.0,-448.0,229.0,686.0
-47.0,331.0,21.0,687.0,-1637.0,-333.0,164.0,432.0
-26.0,258.0,23.0,290.0,-1817.0,-51.0,265.0,60.0
-17.0,282.0,28.0,-387.0,-1671.0,-31.0,333.0,-228.0
-34.0,280.0,7.0,-714.0,-1398.0,-65.0,400.0,-758.0
2.0,215.0,36.0,-770.0,-1390.0,-104.0,325.0,-1185.0
-18.0,103.0,68.0,-650.0,-1377.0,-252.0,256.0,-824.0
-3.0,55.0,53.0,-476.0,-1638.0,-204.0,486.0,-618.0
-3.0,102.0,31.0,-151.0,-1915.0,-106.0,661.0,-729.0
-26.0,-64.0,-7.0,186.0,-1998.0,-58.0,576.0,-579.0
-17.0,-337.0,2.0,447.0,-2340.0,-81.0,364.0,-972.0
10.0,-456.0,-64.0,465.0,-2496.0,-338.0,76.0,-1540.0
-28.0,-353.0,-56.0,328.0,-2436.0,-406.0,-8.0,-869.0
-74.0,-201.0,-33.0,286.0,-2248.0,-362.0,153.0,35.0
-44.0,-174.0,-38.0,71.0,-1765.0,-394.0,451.0,111.0
-22.0,-58.0,-8.0,4.0,-1737.0,-221.0,1164.0,-29.0
-35.0,103.0,-31.0,44.0,-1383.0,-262.0,1931.0,-313.0
-31.0,294.0,-1.0,27.0,-1114.0,-485.0,2255.0,-284.0
7.0,325.0,-21.0,81.0,-1259.0,-582.0,1906.0,-206.0
-3.0,252.0,-31.0,94.0,-1202.0,-485.0,1060.0,-254.0
6.0,211.0,-37.0,54.0,-1528.0,-323.0,97.0,-370.0
