53.0,1.0,-1720.0,25.0,362.0,6.0,40.0,-70.0
40.0,24.0,-2057.0,3.0,328.0,-1.0,23.0,-69.0
30.0,14.0,-1846.0,9.0,290.0,-16.0,5.0,-169.0
7.0,16.0,-1878.0,-16.0,261.0,11.0,-15.0,-213.0
-31.0,11.0,-1229.0,24.0,243.0,5.0,-27.0,-168.0
-12.0,-4.0,-365.0,91.0,195.0,-4.0,-49.0,-96.0
-16.0,0.0,-336.0,94.0,134.0,-12.0,-45.0,-134.0
-45.0,-18.0,-403.0,75.0,129.0,-29.0,-23.0,-121.0
-27.0,-28.0,-281.0,12.0,106.0,-23.0,-51.0,-75.0
-21.0,-57.0,-149.0,12.0,56.0,-53.0,-58.0,-39.0
-45.0,-50.0,160.0,7.0,13.0,-56.0,-84.0,-47.0
-80.0,-26.0,408.0,-43.0,-36.0,-57.0,-127.0,-70.0
-81.0,-14.0,695.0,-97.0,-60.0,-73.0,-108.0,-27.0
-77.0,-25.0,708.0,-140.0,-85.0,-67.0,-130.0,210.0
-78.0,-59.0,807.0,-107.0,-125.0,-82.0,-124.0,484.0
-72.0,-91.0,828.0,-75.0,-138.0,-38.0,-106.0,308.0
-98.0,-95.0,792.0,-88.0,-182.0,21.0,-104.0,153.0
-105.0,-48.0,801.0,-90.0,-183.0,43.0,-53.0,-17.0
-125.0,-59.0,663.0,-74.0,-213.0,75.0,-20.0,-240.0
-152.0,-1.0,857.0,-84.0,-227.0,93.0,10.0,-360.0
-163.0,16.0,1284.0,-79.0,-234.0,81.0,16.0,-724.0
-175.0,12.0,1770.0,-93.0,-263.0,70.0,10.0,-948.0
-160.0,41.0,2600.0,-68.0,-218.0,67.0,18.0,-482.0
-118.0,7.0,2811.0,-21.0,-242.0,58.0,22.0,123.0
-101.0,-14.0,728.0,-10.0,-282.0,29.0,22.0,33.0
-69.0,-53.0,-746.0,6.0,-278.0,49.0,17.0,157.0
-45.0,-21.0,-768.0,-6.0,-268.0,126.0,13.0,239.0
-82.0,11.0,-515.0,8.0,-291.0,134.0,61.0,182.0
-52.0,34.0,219.0,15.0,-288.0,133.0,70.0,267.0
-58.0,53.0,89.0,-83.0,-270.0,119.0,32.0,156.0
-93.0,62.0,-472.0,-76.0,-241.0,86.0,24.0,209.0
-75.0,60.0,-1908.0,-5.0,-242.0,57.0,7.0,211.0
-83.0,40.0,-2835.0,16.0,-299.0,-9.0,7.0,148.0
-96.0,73.0,-2432.0,54.0,-227.0,40.0,4.0,59.0
-92.0,63.0,-1028.0,37.0,-225.0,69.0,-9.0,195.0
-66.0,82.0,957.0,73.0,-207.0,46.0,-8.0,182.0
-26.0,65.0,1544.0,98.0,-174.0,61.0,-49.0,71.0
-17.0,-4.0,671.0,83.0,-181.0,56.0,-76.0,164.0
-39.0,0.0,-1655.0,99.0,-132.0,45.0,-84.0,148.0
-27.0,4.0,-2717.0,97.0,-132.0,47.0,-102.0,328.0
-21.0,-8.0,-1811.0,118.0,-85.0,28.0,-69.0,395.0
-50.0,15.0,-1134.0,81.0,-40.0,28.0,-65.0,274.0
-70.0,41.0,-694.0,-5.0,-1.0,50.0,-74.0,209.0
-61.0,30.0,-39.0,-94.0,20.0,33.0,-81.0,161.0
-60.0,5.0,988.0,-149.0,25.0,3.0,-119.0,131.0
-34.0,2.0,455.0,-76.0,24.0,-1.0,-110.0,17.0
11.0,1.0,-761.0,18.0,36.0,10.0,-129.0,-215.0
-32.0,38.0,-383.0,68.0,49.0,12.0,-166.0,-386.0
-25.0,-18.0,1347.0,28.0,66.0,-6.0,-159.0,-121.0
26.0,-118.0,3054.0,-11.0,74.0,21.0,-130.0,16.0
16.0,-67.0,2653.0,-59.0,46.0,19.0,-133.0,-227.0
22.0,-37.0,785.0,-110.0,74.0,11.0,-131.0,-104.0
17.0,-38.0,-371.0,-104.0,82.0,29.0,-94.0,102.0
-23.0,-26.0,-747.0,-125.0,80.0,20.0,-51.0,131.0
-33.0,3.0,-814.0,-76.0,77.0,-3.0,-65.0,193.0
-36.0,38.0,-1101.0,-23.0,93.0,-51.0,-91.0,275.0
-46.0,15.0,-1101.0,-89.0,125.0,-89.0,-68.0,318.0
-41.0,20.0,-1078.0,-83.0,151.0,-81.0,-58.0,228.0
-34.0,50.0,-628.0,-56.0,180.0,-14.0,-59.0,197.0
-19.0,30.0,394.0,-54.0,169.0,-26.0,-60.0,76.0
36.0,57.0,654.0,25.0,170.0,-37.0,-63.0,-33.0
39.0,105.0,663.0,12.0,154.0,-9.0,-60.0,-14.0
21.0,148.0,785.0,57.0,168.0,13.0,-33.0,-183.0
1.0,160.0,415.0,64.0,182.0,56.0,-32.0,-424.0
-23.0,138.0,318.0,-18.0,171.0,4.0,-12.0,-339.0
36.0,111.0,1908.0,-10.0,180.0,13.0,42.0,108.0
17.0,38.0,4000.0,-33.0,219.0,45.0,77.0,176.0
45.0,-11.0,3714.0,-11.0,220.0,7.0,95.0,106.0
80.0,-106.0,-716.0,-33.0,201.0,47.0,78.0,108.0
53.0,-147.0,-3015.0,-63.0,199.0,37.0,90.0,-14.0
42.0,-253.0,-3148.0,18.0,202.0,34.0,124.0,-49.0
-69.0,-368.0,-2757.0,116.0,224.0,56.0,107.0,-33.0
-150.0,-314.0,-2300.0,131.0,196.0,58.0,113.0,-1.0
-165.0,-132.0,-519.0,50.0,159.0,90.0,110.0,-92.0
-156.0,58.0,2421.0,-40.0,177.0,71.0,103.0,44.0
-90.0,31.0,3173.0,-110.0,228.0,44.0,120.0,239.0
-93.0,34.0,1549.0,-56.0,236.0,65.0,146.0,243.0
-132.0,-53.0,-804.0,10.0,228.0,68.0,188.0,213.0
-141.0,-53.0,-1036.0,-42.0,199.0,51.0,179.0,181.0
-138.0,69.0,-253.0,-46.0,196.0,56.0,166.0,116.0
-140.0,113.0,-479.0,-54.0,212.0,40.0,170.0,7.0
-131.0,240.0,801.0,-57.0,150.0,32.0,137.0,-109.0
-116.0,294.0,-274.0,1.0,154.0,7.0,116.0,-268.0
-81.0,251.0,-2717.0,-11.0,171.0,16.0,122.0,-482.0
-62.0,170.0,-3225.0,-29.0,159.0,54.0,110.0,-399.0
-91.0,113.0,-2889.0,-11.0,132.0,28.0,97.0,91.0
-52.0,19.0,-507.0,130.0,97.0,57.0,90.0,247.0
-77.0,-74.0,-275.0,107.0,60.0,61.0,67.0,296.0
-87.0,-136.0,-113.0,-28.0,48.0,31.0,59.0,276.0
-64.0,-97.0,364.0,-91.0,45.0,35.0,54.0,193.0
-99.0,-34.0,-437.0,-88.0,-7.0,50.0,65.0,196.0
-132.0,-40.0,-218.0,-25.0,-35.0,48.0,93.0,61.0
-120.0,-13.0,356.0,-28.0,-25.0,44.0,85.0,-120.0
-62.0,-33.0,2330.0,-32.0,-7.0,37.0,77.0,-555.0
-84.0,-86.0,4000.0,-65.0,-22.0,20.0,81.0,-534.0
-67.0,-31.0,2483.0,-4.0,-18.0,25.0,89.0,100.0
-64.0,-11.0,-812.0,16.0,-31.0,2.0,80.0,282.0
-83.0,-69.0,-1948.0,35.0,-67.0,14.0,42.0,255.0
-64.0,-83.0,-2405.0,75.0,-72.0,27.0,53.0,224.0
-85.0,-117.0,-1398.0,-16.0,-99.0,34.0,48.0,76.0
-118.0,-139.0,-371.0,-82.0,-91.0,24.0,46.0,158.0
-78.0,-147.0,-29.0,-80.0,-16.0,13.0,79.0,69.0
-23.0,-5.0,76.0,-49.0,-29.0,43.0,58.0,-250.0
12.0,75.0,-92.0,31.0,-86.0,61.0,55.0,-415.0
40.0,72.0,1349.0,97.0,-109.0,73.0,61.0,-248.0
64.0,155.0,2005.0,-23.0,-131.0,107.0,66.0,-108.0
92.0,65.0,1452.0,-14.0,-108.0,124.0,111.0,-6.0
66.0,56.0,1770.0,38.0,-135.0,97.0,90.0,-18.0
32.0,45.0,1704.0,-38.0,-126.0,50.0,73.0,-166.0
-10.0,44.0,402.0,-30.0,-86.0,1.0,81.0,-150.0
-48.0,53.0,-145.0,-22.0,-98.0,-43.0,55.0,56.0
-34.0,-1.0,736.0,-33.0,-86.0,0.0,53.0,165.0
-29.0,66.0,2083.0,-48.0,-81.0,28.0,28.0,53.0
-62.0,57.0,89.0,-20.0,-42.0,-6.0,-8.0,144.0
-104.0,66.0,-2770.0,-9.0,27.0,20.0,-43.0,129.0
-104.0,58.0,-3832.0,50.0,87.0,29.0,-62.0,225.0
-86.0,54.0,-3689.0,99.0,70.0,12.0,-55.0,263.0
-46.0,52.0,-1362.0,51.0,56.0,36.0,-52.0,214.0
-3.0,6.0,-563.0,7.0,62.0,49.0,-44.0,144.0
-18.0,-1.0,-233.0,-24.0,44.0,13.0,-58.0,153.0
42.0,-7.0,328.0,-40.0,36.0,22.0,-40.0,230.0
175.0,-23.0,858.0,-74.0,-6.0,34.0,-54.0,-17.0
48.0,-78.0,1293.0,-86.0,-29.0,13.0,-82.0,-61.0
-203.0,-78.0,764.0,-54.0,36.0,-8.0,-94.0,218.0
-253.0,-68.0,736.0,-40.0,94.0,-10.0,-131.0,666.0
-294.0,-19.0,436.0,-49.0,119.0,-28.0,-119.0,588.0
-208.0,26.0,288.0,-32.0,109.0,-33.0,-101.0,326.0
-1.0,10.0,410.0,-50.0,52.0,-28.0,-94.0,276.0
339.0,9.0,663.0,-93.0,48.0,-23.0,-86.0,25.0
854.0,0.0,807.0,-55.0,35.0,27.0,-56.0,-126.0
920.0,2.0,716.0,-4.0,78.0,56.0,-30.0,-425.0
647.0,51.0,634.0,-39.0,85.0,76.0,-9.0,-758.0
150.0,49.0,492.0,-86.0,76.0,61.0,0.0,-671.0
44.0,-3.0,606.0,29.0,85.0,54.0,-9.0,-119.0
342.0,-27.0,461.0,26.0,52.0,9.0,-12.0,33.0
456.0,-42.0,115.0,-76.0,39.0,-63.0,-19.0,-175.0
215.0,-42.0,-110.0,-83.0,61.0,-113.0,5.0,-34.0
-296.0,-48.0,-179.0,-24.0,104.0,-112.0,-7.0,5.0
-719.0,-19.0,-255.0,22.0,97.0,-19.0,-29.0,47.0
-1162.0,-19.0,-343.0,-2.0,119.0,-7.0,-7.0,152.0
-974.0,17.0,-226.0,18.0,118.0,24.0,8.0,304.0
-599.0,36.0,-205.0,18.0,97.0,40.0,15.0,228.0
-523.0,22.0,-158.0,31.0,128.0,42.0,25.0,86.0
-584.0,13.0,-86.0,12.0,128.0,55.0,-7.0,66.0
-486.0,-19.0,-178.0,-9.0,112.0,50.0,-12.0,-29.0
-150.0,29.0,-137.0,-13.0,114.0,79.0,8.0,-37.0
-33.0,35.0,-26.0,-33.0,132.0,45.0,-2.0,24.0
406.0,15.0,-12.0,-5.0,99.0,24.0,-4.0,172.0
863.0,16.0,-17.0,-28.0,89.0,-15.0,-11.0,106.0
798.0,18.0,-160.0,-60.0,78.0,22.0,-13.0,119.0
790.0,37.0,-193.0,-39.0,62.0,65.0,-29.0,135.0
573.0,25.0,-135.0,-44.0,56.0,17.0,-40.0,9.0
-67.0,37.0,-206.0,-34.0,1.0,65.0,-44.0,-146.0
9.0,16.0,-85.0,13.0,-70.0,41.0,-21.0,-534.0
560.0,-33.0,0.0,46.0,-99.0,22.0,-27.0,-431.0
896.0,-30.0,185.0,23.0,-122.0,89.0,-36.0,-14.0
489.0,-26.0,492.0,-12.0,-99.0,98.0,-37.0,117.0
-94.0,-44.0,118.0,4.0,-72.0,100.0,-59.0,224.0
-392.0,-38.0,-401.0,4.0,-118.0,91.0,-30.0,236.0
-730.0,-4.0,-596.0,-32.0,-149.0,118.0,-38.0,170.0
-673.0,12.0,-601.0,-53.0,-131.0,135.0,-41.0,102.0
-396.0,17.0,-385.0,-65.0,-118.0,115.0,-26.0,-140.0
-244.0,26.0,-258.0,-69.0,-189.0,145.0,-26.0,-276.0
97.0,-1.0,-174.0,-36.0,-148.0,126.0,-15.0,-362.0
351.0,47.0,-79.0,-16.0,-96.0,97.0,-11.0,-482.0
204.0,82.0,-25.0,-7.0,-105.0,103.0,7.0,-247.0
107.0,81.0,-49.0,8.0,-123.0,91.0,28.0,196.0
137.0,98.0,-60.0,-1.0,-164.0,56.0,58.0,228.0
253.0,16.0,50.0,-15.0,-188.0,104.0,54.0,107.0
375.0,-64.0,11.0,-25.0,-238.0,126.0,40.0,20.0
452.0,-71.0,-17.0,-17.0,-268.0,81.0,54.0,-108.0
456.0,-83.0,6.0,-3.0,-263.0,86.0,76.0,-265.0
273.0,-110.0,-42.0,-25.0,-183.0,67.0,95.0,-431.0
243.0,-92.0,-91.0,-26.0,-151.0,76.0,107.0,-177.0
277.0,-69.0,-95.0,-26.0,-209.0,56.0,120.0,85.0
222.0,-93.0,-23.0,-41.0,-228.0,53.0,153.0,160.0
843.0,-59.0,55.0,-33.0,-281.0,86.0,159.0,290.0
1875.0,-27.0,215.0,-41.0,-328.0,84.0,158.0,202.0
1557.0,-8.0,200.0,-20.0,-307.0,115.0,167.0,224.0
680.0,-6.0,-72.0,-16.0,-309.0,126.0,183.0,141.0
310.0,-46.0,-226.0,-13.0,-364.0,83.0,202.0,-61.0
-631.0,-41.0,-283.0,-3.0,-372.0,58.0,167.0,-49.0
-966.0,13.0,-183.0,22.0,-372.0,61.0,152.0,-120.0
-1016.0,25.0,-41.0,16.0,-350.0,57.0,145.0,-180.0
-1267.0,9.0,10.0,9.0,-333.0,67.0,143.0,-48.0
-1324.0,40.0,77.0,41.0,-299.0,115.0,148.0,54.0
-779.0,33.0,63.0,20.0,-250.0,87.0,123.0,41.0
154.0,32.0,-29.0,23.0,-225.0,57.0,123.0,41.0
281.0,72.0,-33.0,32.0,-189.0,29.0,131.0,-22.0
226.0,99.0,59.0,8.0,-252.0,-39.0,129.0,-12.0
-234.0,112.0,31.0,18.0,-245.0,28.0,126.0,1.0
-566.0,117.0,60.0,24.0,-183.0,72.0,112.0,2.0
-331.0,95.0,21.0,9.0,-245.0,87.0,94.0,86.0
-128.0,87.0,3.0,39.0,-248.0,41.0,91.0,99.0
92.0,36.0,44.0,48.0,-188.0,-40.0,73.0,182.0
180.0,-25.0,28.0,31.0,-138.0,51.0,59.0,209.0
86.0,-2.0,38.0,6.0,-73.0,-39.0,37.0,128.0
-51.0,-5.0,11.0,-8.0,-153.0,-139.0,12.0,79.0
131.0,-26.0,52.0,-19.0,-222.0,-85.0,2.0,-66.0
127.0,-75.0,39.0,-61.0,-284.0,-101.0,-8.0,-109.0
-1.0,-133.0,7.0,-76.0,-317.0,-86.0,-5.0,-50.0
505.0,-105.0,-26.0,-68.0,-278.0,-104.0,-3.0,-100.0
817.0,-47.0,-49.0,-74.0,-313.0,-87.0,-7.0,-73.0
566.0,-41.0,-14.0,-57.0,-203.0,-56.0,-13.0,-95.0
310.0,-87.0,-18.0,-42.0,-137.0,-52.0,2.0,-42.0
114.0,-60.0,-16.0,-4.0,-152.0,-61.0,20.0,97.0
-190.0,-44.0,42.0,-22.0,-146.0,-69.0,8.0,202.0
608.0,-26.0,217.0,-49.0,-168.0,-39.0,-11.0,255.0
2410.0,-12.0,840.0,-85.0,-152.0,-39.0,-10.0,169.0
2549.0,-72.0,3043.0,-99.0,-138.0,-57.0,-1.0,194.0
1124.0,-36.0,4000.0,-54.0,-125.0,-57.0,8.0,56.0
-610.0,23.0,2421.0,-78.0,-90.0,-41.0,28.0,-62.0
-1430.0,2.0,-1703.0,-47.0,-106.0,-31.0,55.0,-138.0
-1585.0,-9.0,-3604.0,8.0,-108.0,-12.0,86.0,-390.0
-2114.0,-2.0,-4000.0,-15.0,-45.0,-9.0,105.0,-553.0
-2888.0,10.0,-2704.0,-34.0,16.0,10.0,120.0,-301.0
-3424.0,27.0,-1785.0,-11.0,83.0,8.0,132.0,60.0
-2499.0,152.0,-1362.0,34.0,66.0,-15.0,129.0,-30.0
-1365.0,279.0,-1563.0,50.0,62.0,-43.0,113.0,32.0
-880.0,188.0,-2151.0,50.0,140.0,-56.0,90.0,25.0
-767.0,114.0,-1484.0,142.0,137.0,-28.0,98.0,-30.0
-609.0,162.0,-383.0,144.0,89.0,-25.0,106.0,51.0
54.0,200.0,676.0,69.0,92.0,-14.0,102.0,20.0
245.0,190.0,1243.0,29.0,114.0,8.0,92.0,46.0
538.0,135.0,858.0,-14.0,81.0,-7.0,105.0,21.0
790.0,66.0,-29.0,-12.0,66.0,5.0,146.0,64.0
863.0,22.0,-248.0,12.0,80.0,-6.0,167.0,41.0
1102.0,-14.0,-160.0,15.0,98.0,-12.0,162.0,60.0
1051.0,-23.0,231.0,-5.0,80.0,3.0,147.0,182.0
1018.0,-70.0,344.0,-46.0,91.0,20.0,126.0,276.0
1038.0,-97.0,546.0,-40.0,154.0,35.0,103.0,207.0
994.0,-121.0,1153.0,-46.0,194.0,34.0,54.0,104.0
1026.0,-131.0,1375.0,-67.0,202.0,9.0,2.0,47.0
1254.0,-115.0,642.0,-53.0,180.0,-65.0,-6.0,-76.0
1345.0,-129.0,-54.0,-67.0,190.0,-27.0,5.0,-155.0
847.0,-94.0,-137.0,-76.0,202.0,19.0,24.0,-431.0
23.0,-83.0,-225.0,-78.0,212.0,-68.0,25.0,-562.0
-5.0,-66.0,24.0,-74.0,207.0,-143.0,3.0,-145.0
408.0,-66.0,199.0,-35.0,209.0,-12.0,-1.0,47.0
346.0,-77.0,611.0,-46.0,180.0,93.0,-19.0,-32.0
194.0,-114.0,708.0,-62.0,180.0,38.0,-33.0,129.0
-116.0,-118.0,317.0,-30.0,210.0,70.0,-45.0,216.0
55.0,17.0,136.0,-13.0,218.0,28.0,-39.0,249.0
101.0,99.0,166.0,-15.0,258.0,1.0,-62.0,182.0
-445.0,56.0,124.0,-42.0,237.0,-94.0,-117.0,136.0
-909.0,10.0,100.0,-49.0,282.0,-102.0,-94.0,82.0
-901.0,93.0,215.0,-76.0,298.0,-37.0,-92.0,-11.0
-719.0,140.0,262.0,-98.0,245.0,-41.0,-117.0,-91.0
-936.0,34.0,343.0,-52.0,253.0,34.0,-111.0,-301.0
-962.0,-33.0,722.0,-13.0,219.0,20.0,-104.0,-223.0
-691.0,-72.0,1218.0,6.0,218.0,10.0,-133.0,51.0
216.0,-36.0,520.0,16.0,244.0,1.0,-140.0,104.0
705.0,38.0,-607.0,20.0,233.0,40.0,-182.0,122.0
447.0,13.0,-768.0,10.0,245.0,19.0,-224.0,153.0
804.0,-8.0,-688.0,19.0,298.0,2.0,-241.0,147.0
436.0,-43.0,-446.0,4.0,320.0,31.0,-255.0,126.0
-296.0,-64.0,-97.0,-9.0,298.0,12.0,-233.0,66.0
-211.0,-21.0,-13.0,4.0,296.0,42.0,-238.0,18.0
-409.0,57.0,30.0,3.0,327.0,66.0,-216.0,82.0
-214.0,99.0,166.0,26.0,373.0,87.0,-208.0,119.0
-49.0,41.0,168.0,11.0,374.0,100.0,-200.0,54.0
-309.0,-24.0,146.0,6.0,344.0,93.0,-172.0,84.0
-177.0,25.0,401.0,12.0,358.0,104.0,-159.0,34.0
92.0,117.0,630.0,0.0,400.0,115.0,-161.0,6.0
315.0,149.0,450.0,16.0,354.0,69.0,-184.0,8.0
416.0,111.0,69.0,16.0,318.0,-17.0,-189.0,33.0
505.0,78.0,-91.0,-12.0,300.0,-64.0,-172.0,42.0
395.0,45.0,-154.0,-6.0,253.0,-63.0,-157.0,5.0
-91.0,0.0,-121.0,-7.0,272.0,-4.0,-149.0,17.0
-431.0,-55.0,40.0,-33.0,270.0,62.0,-139.0,-5.0
-282.0,-110.0,712.0,-53.0,267.0,88.0,-131.0,-9.0
-440.0,-80.0,2616.0,-139.0,267.0,87.0,-98.0,-13.0
-425.0,-68.0,4000.0,-190.0,301.0,44.0,-54.0,8.0
-52.0,-70.0,4000.0,-137.0,354.0,42.0,-41.0,35.0
61.0,-9.0,476.0,-69.0,428.0,71.0,-24.0,64.0
134.0,87.0,-3539.0,-50.0,473.0,48.0,16.0,62.0
20.0,68.0,-4000.0,-13.0,519.0,36.0,29.0,49.0
-193.0,5.0,-4000.0,8.0,530.0,51.0,49.0,95.0
-407.0,64.0,-2847.0,13.0,484.0,77.0,56.0,88.0
-406.0,63.0,-1714.0,56.0,480.0,73.0,68.0,92.0
-136.0,49.0,-1520.0,72.0,484.0,49.0,105.0,162.0
-323.0,-28.0,-1823.0,106.0,509.0,-6.0,142.0,261.0
-445.0,-38.0,-1398.0,122.0,531.0,-79.0,168.0,340.0
-493.0,38.0,-381.0,40.0,554.0,-11.0,160.0,373.0
-737.0,12.0,101.0,95.0,575.0,21.0,197.0,418.0
-285.0,39.0,-122.0,81.0,550.0,-71.0,221.0,249.0
162.0,41.0,-320.0,-25.0,553.0,-33.0,221.0,76.0
133.0,-19.0,-200.0,8.0,528.0,-14.0,225.0,-2.0
381.0,-50.0,-84.0,-7.0,481.0,-6.0,209.0,-320.0
543.0,6.0,318.0,13.0,522.0,26.0,220.0,-425.0
522.0,41.0,828.0,17.0,526.0,-9.0,236.0,-352.0
493.0,31.0,1249.0,4.0,491.0,-4.0,266.0,-539.0
49.0,31.0,1152.0,-11.0,491.0,-17.0,244.0,-200.0
-255.0,-1.0,1029.0,-65.0,476.0,-24.0,233.0,193.0
-388.0,10.0,996.0,-30.0,361.0,-24.0,223.0,86.0
-327.0,-3.0,1283.0,-67.0,234.0,-17.0,214.0,294.0
-327.0,4.0,1387.0,-51.0,128.0,-18.0,228.0,202.0
-580.0,4.0,899.0,-52.0,49.0,-25.0,213.0,51.0
-508.0,-27.0,400.0,-50.0,16.0,-2.0,233.0,193.0
-234.0,2.0,-25.0,-40.0,-73.0,-4.0,209.0,147.0
-128.0,4.0,-277.0,-69.0,-134.0,-7.0,179.0,190.0
-143.0,-12.0,-447.0,-25.0,-152.0,4.0,162.0,178.0
77.0,-25.0,-515.0,-57.0,-172.0,-16.0,170.0,169.0
122.0,-22.0,-401.0,-31.0,-209.0,13.0,148.0,170.0
142.0,-30.0,69.0,35.0,-286.0,18.0,126.0,94.0
208.0,-27.0,311.0,40.0,-339.0,8.0,126.0,9.0
214.0,-54.0,246.0,-20.0,-356.0,24.0,143.0,83.0
228.0,-15.0,354.0,-61.0,-374.0,29.0,155.0,177.0
250.0,21.0,118.0,-45.0,-395.0,21.0,126.0,168.0
313.0,-1.0,-263.0,-15.0,-400.0,20.0,142.0,426.0
187.0,-12.0,-373.0,27.0,-380.0,45.0,135.0,497.0
159.0,-48.0,-425.0,-10.0,-411.0,29.0,117.0,399.0
204.0,-38.0,-363.0,-6.0,-395.0,40.0,79.0,379.0
187.0,-21.0,-182.0,-37.0,-372.0,61.0,53.0,275.0
192.0,-39.0,142.0,-37.0,-399.0,48.0,26.0,90.0
214.0,-57.0,467.0,-1.0,-383.0,58.0,4.0,-131.0
201.0,-26.0,-17.0,-24.0,-395.0,62.0,22.0,-427.0
209.0,-2.0,-863.0,-10.0,-374.0,71.0,-4.0,-577.0
209.0,-11.0,-935.0,-23.0,-360.0,119.0,27.0,-213.0
139.0,-28.0,-747.0,-10.0,-379.0,132.0,31.0,-74.0
139.0,-23.0,-277.0,15.0,-391.0,118.0,58.0,-228.0
121.0,-1.0,10.0,13.0,-421.0,87.0,105.0,-128.0
98.0,22.0,107.0,15.0,-402.0,44.0,94.0,213.0
101.0,43.0,271.0,42.0,-403.0,38.0,100.0,344.0
118.0,41.0,284.0,8.0,-384.0,-52.0,111.0,236.0
95.0,57.0,337.0,-21.0,-346.0,-47.0,132.0,220.0
85.0,55.0,459.0,-36.0,-299.0,67.0,134.0,12.0
109.0,47.0,973.0,-64.0,-286.0,42.0,149.0,-64.0
79.0,69.0,1375.0,-52.0,-281.0,50.0,111.0,-329.0
55.0,56.0,1503.0,-56.0,-246.0,85.0,67.0,-545.0
34.0,41.0,1149.0,-80.0,-234.0,54.0,56.0,-195.0
-5.0,58.0,1249.0,-93.0,-234.0,81.0,27.0,-47.0
-9.0,68.0,1423.0,-95.0,-227.0,91.0,0.0,-48.0
8.0,66.0,372.0,-78.0,-174.0,82.0,-42.0,58.0
24.0,57.0,-841.0,-53.0,-134.0,46.0,-77.0,0.0
50.0,25.0,-2151.0,-51.0,-134.0,-16.0,-101.0,-4.0
70.0,11.0,-2045.0,-45.0,-126.0,-32.0,-112.0,0.0
43.0,14.0,-1388.0,-14.0,-105.0,0.0,-119.0,-76.0
12.0,25.0,-890.0,12.0,-95.0,19.0,-109.0,-78.0
-3.0,27.0,-741.0,13.0,-113.0,17.0,-98.0,-122.0
-14.0,55.0,-906.0,20.0,-110.0,42.0,-121.0,-118.0
-51.0,40.0,-271.0,102.0,-92.0,22.0,-117.0,-90.0
-92.0,-49.0,-119.0,95.0,-79.0,21.0,-98.0,6.0
-44.0,-62.0,121.0,29.0,-58.0,79.0,-98.0,5.0
-63.0,-40.0,202.0,52.0,-55.0,48.0,-89.0,-87.0
-148.0,-19.0,1757.0,27.0,-9.0,57.0,-113.0,-99.0
-166.0,-10.0,2834.0,-24.0,24.0,80.0,-117.0,-59.0
-143.0,-6.0,1627.0,-61.0,39.0,44.0,-101.0,-50.0
-164.0,-33.0,866.0,-39.0,82.0,-9.0,-90.0,-79.0
-236.0,-73.0,-841.0,22.0,116.0,-47.0,-92.0,-91.0
-260.0,-97.0,-2188.0,25.0,106.0,-10.0,-119.0,-55.0
-243.0,-83.0,-2045.0,27.0,77.0,3.0,-98.0,-27.0
-183.0,-64.0,-1944.0,11.0,83.0,5.0,-75.0,-50.0
-148.0,-53.0,-1471.0,-26.0,69.0,24.0,-61.0,-9.0
-125.0,-32.0,-1035.0,-32.0,55.0,21.0,-64.0,-9.0
-70.0,-54.0,-1087.0,62.0,50.0,37.0,-45.0,3.0
-12.0,-85.0,-1279.0,64.0,24.0,29.0,-37.0,41.0
-18.0,-69.0,-651.0,18.0,6.0,31.0,-51.0,27.0
-44.0,-16.0,-340.0,31.0,7.0,42.0,-29.0,32.0
-111.0,7.0,-562.0,12.0,-8.0,36.0,-30.0,41.0
-153.0,36.0,271.0,-10.0,-3.0,30.0,-43.0,39.0
-100.0,41.0,2343.0,-44.0,7.0,24.0,-47.0,51.0
-112.0,24.0,3575.0,-25.0,25.0,45.0,-56.0,47.0
-112.0,49.0,1680.0,-55.0,53.0,16.0,-19.0,58.0
-97.0,40.0,-477.0,-93.0,63.0,39.0,6.0,67.0
-89.0,37.0,-1302.0,-95.0,80.0,44.0,-9.0,63.0
-65.0,40.0,-1297.0,-85.0,92.0,28.0,27.0,74.0
-32.0,17.0,-547.0,-38.0,85.0,42.0,21.0,43.0
-10.0,38.0,-350.0,-34.0,114.0,32.0,29.0,60.0
23.0,50.0,541.0,-1.0,140.0,30.0,43.0,83.0
-3.0,25.0,1159.0,39.0,102.0,14.0,45.0,72.0
-80.0,43.0,573.0,68.0,77.0,24.0,48.0,106.0
-91.0,69.0,-385.0,31.0,33.0,0.0,47.0,136.0
-105.0,67.0,-223.0,15.0,-8.0,-28.0,50.0,143.0
-122.0,57.0,498.0,-34.0,-46.0,-13.0,41.0,137.0
-83.0,63.0,792.0,-89.0,-68.0,-20.0,34.0,247.0
-70.0,80.0,1503.0,-85.0,-56.0,-30.0,26.0,396.0
-39.0,90.0,2054.0,-96.0,-92.0,-10.0,35.0,393.0
-39.0,73.0,1237.0,-99.0,-84.0,-3.0,1.0,237.0
-46.0,43.0,-120.0,-113.0,-79.0,10.0,-25.0,88.0
29.0,-44.0,-763.0,-99.0,-105.0,6.0,-7.0,-45.0
71.0,-142.0,-1427.0,-79.0,-121.0,12.0,-15.0,-297.0
47.0,-148.0,-1143.0,-53.0,-128.0,48.0,-48.0,-604.0
46.0,-179.0,-971.0,-11.0,-99.0,72.0,-46.0,-781.0
1.0,-207.0,-670.0,12.0,-71.0,76.0,-43.0,-457.0
-89.0,-175.0,432.0,42.0,-40.0,109.0,-40.0,-91.0
-67.0,-147.0,1544.0,87.0,-24.0,180.0,-16.0,114.0
35.0,-92.0,1571.0,110.0,-34.0,141.0,-5.0,394.0
71.0,-12.0,55.0,40.0,-45.0,65.0,19.0,479.0
62.0,1.0,-1208.0,-47.0,-42.0,12.0,-10.0,442.0
30.0,38.0,-1849.0,-54.0,-64.0,-68.0,-13.0,292.0
16.0,117.0,-1390.0,-50.0,-64.0,-67.0,15.0,131.0
-5.0,135.0,663.0,-76.0,-63.0,2.0,-2.0,-26.0
-8.0,217.0,4000.0,-80.0,-70.0,50.0,1.0,-279.0
20.0,240.0,4000.0,-23.0,-40.0,30.0,22.0,-529.0
73.0,203.0,3497.0,61.0,-33.0,64.0,30.0,-514.0
154.0,193.0,-1648.0,74.0,-13.0,106.0,66.0,-205.0
139.0,49.0,-4000.0,52.0,4.0,37.0,61.0,-52.0
110.0,-62.0,-4000.0,40.0,20.0,36.0,70.0,1.0
86.0,-108.0,-2757.0,19.0,25.0,54.0,91.0,131.0
49.0,-103.0,-976.0,-24.0,55.0,45.0,60.0,79.0
18.0,-104.0,-676.0,8.0,67.0,56.0,82.0,-64.0
-4.0,-200.0,-2186.0,65.0,78.0,57.0,83.0,-105.0
34.0,-106.0,-3176.0,0.0,100.0,50.0,105.0,84.0
44.0,21.0,-3225.0,-19.0,96.0,79.0,93.0,82.0
-7.0,-16.0,-1760.0,-17.0,116.0,87.0,102.0,14.0
-53.0,-12.0,-1143.0,-18.0,125.0,62.0,101.0,125.0
-51.0,21.0,-547.0,-54.0,125.0,65.0,69.0,-5.0
-45.0,22.0,720.0,-93.0,159.0,65.0,116.0,-2.0
-67.0,-1.0,1098.0,-65.0,196.0,-57.0,86.0,-62.0
-48.0,-2.0,1432.0,-11.0,184.0,-169.0,90.0,-95.0
18.0,64.0,3054.0,7.0,226.0,-115.0,87.0,39.0
9.0,159.0,4000.0,-20.0,248.0,-36.0,77.0,59.0
10.0,200.0,4000.0,-4.0,279.0,61.0,86.0,210.0
20.0,156.0,3137.0,-46.0,288.0,90.0,98.0,341.0
-12.0,102.0,1184.0,-25.0,285.0,103.0,124.0,296.0
12.0,87.0,-955.0,-44.0,302.0,107.0,105.0,230.0
29.0,58.0,-2679.0,-104.0,318.0,73.0,148.0,66.0
-15.0,4.0,-3632.0,-61.0,354.0,45.0,113.0,-64.0
-85.0,-97.0,-3111.0,-48.0,361.0,-84.0,86.0,-121.0
-107.0,-204.0,-2829.0,-52.0,375.0,-167.0,97.0,-267.0
-144.0,-183.0,-1557.0,-22.0,367.0,-180.0,70.0,-496.0
-124.0,-138.0,-1492.0,61.0,340.0,-107.0,36.0,-232.0
-55.0,-107.0,-1028.0,47.0,296.0,68.0,26.0,29.0
-17.0,-35.0,-28.0,51.0,285.0,16.0,64.0,-226.0
33.0,-5.0,80.0,62.0,282.0,35.0,51.0,-199.0
17.0,-31.0,1379.0,60.0,267.0,88.0,64.0,-524.0
-3.0,27.0,3119.0,118.0,253.0,-22.0,58.0,-479.0
-36.0,34.0,3445.0,84.0,265.0,-80.0,54.0,8.0
-67.0,52.0,1047.0,9.0,242.0,-159.0,65.0,7.0
-159.0,29.0,-1427.0,-12.0,188.0,85.0,20.0,82.0
-213.0,-72.0,-2303.0,18.0,198.0,311.0,8.0,107.0
-190.0,-144.0,-2123.0,-22.0,165.0,113.0,9.0,129.0
-196.0,-171.0,-538.0,-78.0,138.0,43.0,-12.0,147.0
-160.0,-83.0,683.0,-69.0,102.0,52.0,3.0,144.0
-157.0,-26.0,1224.0,-33.0,7.0,15.0,2.0,130.0
-163.0,55.0,1053.0,-44.0,-34.0,34.0,-34.0,108.0
-161.0,83.0,751.0,-44.0,-34.0,45.0,6.0,106.0
-177.0,29.0,2005.0,-44.0,-9.0,50.0,21.0,86.0
-118.0,36.0,3649.0,-102.0,-16.0,40.0,-12.0,125.0
-71.0,50.0,3510.0,-82.0,-43.0,64.0,-36.0,111.0
-52.0,34.0,2095.0,-48.0,-99.0,78.0,-16.0,125.0
-31.0,27.0,-1166.0,-39.0,-157.0,98.0,-6.0,103.0
-81.0,87.0,-3762.0,-97.0,-163.0,87.0,-33.0,83.0
-76.0,86.0,-3668.0,-137.0,-208.0,50.0,-22.0,96.0
-21.0,53.0,-2899.0,-120.0,-222.0,32.0,-4.0,119.0
-70.0,55.0,-1362.0,-55.0,-234.0,37.0,-26.0,136.0
-31.0,41.0,-867.0,27.0,-252.0,53.0,-44.0,124.0
27.0,45.0,24.0,-20.0,-242.0,47.0,-20.0,132.0
0.0,43.0,728.0,-59.0,-269.0,39.0,-16.0,117.0
18.0,29.0,427.0,81.0,-299.0,58.0,-9.0,124.0
36.0,30.0,-67.0,170.0,-295.0,70.0,-33.0,134.0
58.0,22.0,-166.0,98.0,-281.0,54.0,-43.0,134.0
129.0,-14.0,566.0,18.0,-281.0,45.0,-52.0,108.0
416.0,1.0,722.0,26.0,-264.0,2.0,-84.0,89.0
1189.0,9.0,728.0,34.0,-245.0,8.0,-74.0,83.0
1300.0,-16.0,476.0,-19.0,-209.0,40.0,-93.0,99.0
358.0,-31.0,337.0,-57.0,-211.0,36.0,-78.0,129.0
-180.0,-21.0,354.0,-52.0,-159.0,54.0,-68.0,158.0
-441.0,24.0,526.0,-50.0,-114.0,62.0,-90.0,206.0
-260.0,14.0,598.0,-18.0,-118.0,56.0,-79.0,193.0
-96.0,7.0,781.0,-25.0,-103.0,77.0,-85.0,141.0
41.0,28.0,1544.0,-59.0,-102.0,61.0,-89.0,10.0
725.0,10.0,1444.0,-88.0,-74.0,-52.0,-106.0,-39.0
947.0,-47.0,308.0,-80.0,-92.0,-179.0,-84.0,-54.0
473.0,-69.0,-365.0,-97.0,-50.0,-175.0,-65.0,-297.0
-515.0,-22.0,-505.0,-81.0,-37.0,-81.0,-49.0,-301.0
-1240.0,-8.0,-285.0,-32.0,-48.0,24.0,-36.0,-70.0
-1633.0,-22.0,-112.0,-54.0,-4.0,155.0,-48.0,-66.0
-1481.0,-22.0,-450.0,-48.0,11.0,90.0,-30.0,-11.0
-1064.0,-12.0,-354.0,-20.0,21.0,55.0,-32.0,-2.0
-589.0,-34.0,-212.0,1.0,45.0,56.0,-17.0,-45.0
41.0,15.0,-389.0,22.0,81.0,-69.0,7.0,66.0
-58.0,94.0,-678.0,47.0,89.0,17.0,22.0,106.0
660.0,77.0,-538.0,44.0,109.0,51.0,29.0,43.0
3249.0,87.0,-419.0,19.0,122.0,44.0,22.0,29.0
3367.0,121.0,-515.0,6.0,154.0,67.0,30.0,28.0
471.0,84.0,-271.0,-7.0,154.0,8.0,34.0,-14.0
-1223.0,21.0,-245.0,16.0,176.0,-3.0,54.0,28.0
-1915.0,-28.0,-192.0,26.0,212.0,-12.0,56.0,35.0
-1837.0,-16.0,-49.0,26.0,219.0,25.0,67.0,39.0
-1524.0,-11.0,30.0,48.0,242.0,61.0,70.0,43.0
-1152.0,-19.0,141.0,54.0,266.0,42.0,89.0,66.0
-960.0,24.0,215.0,44.0,285.0,8.0,110.0,78.0
-1459.0,14.0,106.0,-10.0,283.0,5.0,67.0,63.0
-1277.0,55.0,60.0,19.0,282.0,41.0,79.0,90.0
-736.0,78.0,175.0,83.0,300.0,58.0,104.0,70.0
-25.0,53.0,41.0,27.0,298.0,66.0,70.0,62.0
473.0,58.0,7.0,-21.0,282.0,61.0,72.0,76.0
553.0,30.0,-22.0,-32.0,296.0,36.0,89.0,176.0
772.0,13.0,-28.0,-44.0,299.0,-2.0,65.0,276.0
905.0,-44.0,-15.0,-16.0,310.0,-19.0,58.0,218.0
1051.0,-106.0,-186.0,-28.0,324.0,17.0,66.0,266.0
1221.0,-114.0,-224.0,-66.0,325.0,86.0,70.0,341.0
1059.0,-127.0,-101.0,-37.0,310.0,86.0,90.0,283.0
745.0,-133.0,-55.0,-18.0,283.0,81.0,81.0,48.0
589.0,-94.0,-55.0,-36.0,299.0,126.0,71.0,-417.0
603.0,-52.0,27.0,-54.0,275.0,94.0,62.0,-588.0
509.0,-59.0,-41.0,-78.0,267.0,56.0,53.0,-382.0
517.0,-46.0,-60.0,-71.0,279.0,38.0,40.0,-425.0
530.0,-34.0,-29.0,-44.0,267.0,13.0,46.0,-540.0
69.0,-30.0,-9.0,-61.0,233.0,-27.0,62.0,-484.0
-550.0,-28.0,29.0,-38.0,193.0,-117.0,70.0,-343.0
-672.0,0.0,-2.0,-20.0,196.0,-80.0,71.0,18.0
-126.0,47.0,-16.0,-39.0,169.0,35.0,80.0,96.0
163.0,30.0,-30.0,-31.0,180.0,70.0,107.0,187.0
247.0,75.0,-7.0,6.0,192.0,74.0,120.0,184.0
627.0,99.0,7.0,43.0,163.0,52.0,93.0,137.0
748.0,18.0,-7.0,47.0,190.0,5.0,72.0,247.0
719.0,-7.0,-5.0,48.0,162.0,-42.0,101.0,187.0
843.0,-27.0,-1.0,51.0,144.0,-112.0,101.0,190.0
603.0,-39.0,27.0,60.0,168.0,-18.0,102.0,144.0
-82.0,-69.0,65.0,12.0,176.0,72.0,95.0,134.0
-323.0,-54.0,67.0,-42.0,188.0,43.0,93.0,112.0
-560.0,-35.0,27.0,-67.0,212.0,119.0,126.0,102.0
-957.0,-56.0,-8.0,-78.0,216.0,101.0,106.0,71.0
-1087.0,-53.0,-64.0,-77.0,159.0,81.0,91.0,66.0
-616.0,-18.0,-107.0,-85.0,143.0,8.0,86.0,112.0
97.0,126.0,-48.0,-42.0,116.0,-162.0,116.0,82.0
95.0,152.0,-15.0,-25.0,72.0,-167.0,98.0,50.0
117.0,158.0,-21.0,-33.0,64.0,-33.0,89.0,47.0
194.0,136.0,-26.0,-7.0,24.0,-14.0,44.0,61.0
56.0,25.0,-92.0,-8.0,10.0,-11.0,29.0,12.0
-206.0,12.0,-73.0,-33.0,-27.0,-2.0,65.0,-13.0
-225.0,0.0,-5.0,-9.0,-105.0,-41.0,18.0,3.0
41.0,-32.0,-10.0,-15.0,-124.0,13.0,11.0,-15.0
190.0,-32.0,11.0,-35.0,-211.0,9.0,15.0,-38.0
900.0,0.0,39.0,-15.0,-291.0,-10.0,48.0,-48.0
1959.0,-78.0,11.0,-65.0,-328.0,11.0,88.0,-27.0
1677.0,-57.0,-29.0,-88.0,-395.0,36.0,102.0,-10.0
660.0,45.0,-30.0,-68.0,-425.0,8.0,102.0,-30.0
334.0,70.0,-30.0,-75.0,-476.0,14.0,78.0,-30.0
94.0,35.0,-27.0,-33.0,-518.0,29.0,62.0,-36.0
686.0,-28.0,-13.0,7.0,-537.0,15.0,13.0,-40.0
196.0,-42.0,-17.0,6.0,-566.0,17.0,-19.0,-40.0
-1267.0,-69.0,-37.0,18.0,-575.0,5.0,-35.0,-29.0
-1856.0,-69.0,-53.0,15.0,-596.0,-6.0,-82.0,14.0
-2466.0,-100.0,-3.0,22.0,-665.0,-26.0,-77.0,-28.0
-2271.0,-139.0,246.0,32.0,-677.0,-18.0,-33.0,-73.0
-2024.0,-111.0,801.0,8.0,-686.0,-28.0,15.0,5.0
-1292.0,-16.0,1636.0,-20.0,-717.0,-19.0,41.0,29.0
-696.0,77.0,2213.0,-14.0,-712.0,-3.0,56.0,-28.0
-470.0,175.0,1257.0,-13.0,-679.0,-8.0,83.0,4.0
13.0,235.0,-171.0,-15.0,-631.0,4.0,67.0,-59.0
163.0,105.0,-812.0,-1.0,-643.0,1.0,65.0,-31.0
543.0,1.0,-1537.0,-34.0,-616.0,-6.0,26.0,-37.0
1810.0,-66.0,-1557.0,-52.0,-576.0,0.0,-25.0,-297.0
2793.0,-52.0,-1341.0,3.0,-539.0,9.0,-5.0,-449.0
2192.0,-57.0,-1635.0,42.0,-505.0,15.0,-32.0,-284.0
1081.0,-46.0,-2168.0,45.0,-512.0,1.0,-23.0,-24.0
-266.0,25.0,-2110.0,87.0,-476.0,-14.0,31.0,-46.0
-1162.0,8.0,-1036.0,152.0,-457.0,-4.0,84.0,95.0
-1418.0,21.0,-507.0,165.0,-421.0,36.0,124.0,62.0
-1025.0,-11.0,-368.0,110.0,-395.0,22.0,124.0,63.0
-502.0,11.0,46.0,55.0,-379.0,-2.0,134.0,128.0
-553.0,5.0,252.0,-1.0,-338.0,21.0,107.0,71.0
-323.0,-63.0,288.0,-44.0,-295.0,2.0,87.0,133.0
-208.0,-82.0,441.0,-44.0,-256.0,28.0,56.0,56.0
-124.0,-14.0,463.0,-55.0,-222.0,20.0,25.0,112.0
43.0,70.0,467.0,-56.0,-129.0,17.0,12.0,90.0
530.0,41.0,474.0,-53.0,-90.0,45.0,-13.0,107.0
576.0,41.0,459.0,-36.0,-74.0,43.0,-20.0,127.0
292.0,9.0,439.0,-29.0,-53.0,65.0,-1.0,112.0
399.0,7.0,410.0,-45.0,-14.0,50.0,15.0,112.0
391.0,6.0,410.0,-32.0,52.0,29.0,29.0,100.0
281.0,-22.0,364.0,-25.0,79.0,57.0,44.0,134.0
192.0,15.0,356.0,-32.0,101.0,81.0,58.0,111.0
265.0,-15.0,315.0,-32.0,103.0,72.0,62.0,119.0
354.0,-30.0,308.0,-49.0,137.0,74.0,38.0,87.0
315.0,10.0,343.0,-28.0,176.0,50.0,1.0,77.0
-161.0,60.0,343.0,-49.0,175.0,1.0,-54.0,53.0
-301.0,109.0,573.0,-85.0,224.0,0.0,-69.0,44.0
-119.0,110.0,828.0,-86.0,237.0,4.0,-35.0,45.0
-95.0,56.0,382.0,-78.0,235.0,-37.0,-41.0,30.0
-260.0,31.0,-80.0,-39.0,255.0,-79.0,-34.0,39.0
-236.0,82.0,-35.0,-42.0,242.0,-26.0,-35.0,5.0
285.0,60.0,533.0,-32.0,261.0,2.0,-11.0,-5.0
145.0,12.0,1218.0,-24.0,249.0,-10.0,25.0,-6.0
-213.0,18.0,389.0,-38.0,249.0,50.0,0.0,21.0
-219.0,6.0,-291.0,-13.0,282.0,56.0,-4.0,79.0
-244.0,4.0,298.0,-23.0,287.0,54.0,-58.0,214.0
-319.0,12.0,1133.0,-32.0,300.0,61.0,-68.0,202.0
-238.0,10.0,606.0,-32.0,314.0,46.0,-87.0,112.0
2.0,52.0,-753.0,-24.0,325.0,36.0,-150.0,60.0
250.0,58.0,-1297.0,-45.0,340.0,61.0,-147.0,-51.0
277.0,57.0,-1630.0,-36.0,351.0,74.0,-161.0,63.0
-301.0,-15.0,-1214.0,-8.0,318.0,66.0,-161.0,-53.0
-492.0,-56.0,-1073.0,-19.0,310.0,98.0,-167.0,-435.0
-379.0,19.0,-385.0,-23.0,282.0,103.0,-196.0,-269.0
155.0,34.0,114.0,-39.0,242.0,70.0,-187.0,-51.0
719.0,-16.0,24.0,-27.0,232.0,38.0,-200.0,-305.0
498.0,-79.0,39.0,-16.0,169.0,51.0,-201.0,-230.0
489.0,-42.0,-42.0,-9.0,132.0,92.0,-192.0,-90.0
325.0,-18.0,370.0,6.0,99.0,57.0,-219.0,33.0
-253.0,-72.0,158.0,-1.0,69.0,15.0,-180.0,321.0
-489.0,-85.0,260.0,-40.0,59.0,123.0,-157.0,160.0
-337.0,-89.0,186.0,-18.0,32.0,200.0,-139.0,18.0
-307.0,-49.0,41.0,-21.0,83.0,160.0,-119.0,-42.0
-426.0,4.0,150.0,-2.0,134.0,20.0,-129.0,-424.0
-323.0,-9.0,207.0,37.0,119.0,-52.0,-110.0,-653.0
-416.0,-28.0,243.0,-6.0,90.0,-148.0,-123.0,-484.0
-503.0,-48.0,165.0,12.0,98.0,-257.0,-114.0,-327.0
-305.0,14.0,260.0,-2.0,148.0,-128.0,-70.0,-100.0
-100.0,89.0,246.0,-8.0,184.0,26.0,-66.0,174.0
47.0,70.0,466.0,-12.0,248.0,86.0,-52.0,111.0
20.0,74.0,495.0,-25.0,318.0,86.0,19.0,178.0
325.0,5.0,364.0,4.0,354.0,89.0,29.0,174.0
1429.0,-30.0,85.0,19.0,406.0,53.0,21.0,198.0
1999.0,23.0,-140.0,-9.0,459.0,-6.0,58.0,206.0
954.0,87.0,-33.0,-52.0,462.0,43.0,64.0,161.0
-273.0,53.0,592.0,-22.0,528.0,126.0,136.0,192.0
-1130.0,-13.0,827.0,12.0,562.0,68.0,148.0,140.0
-1482.0,2.0,354.0,3.0,550.0,43.0,117.0,196.0
-1346.0,-41.0,389.0,-18.0,562.0,54.0,135.0,165.0
-909.0,-42.0,-357.0,-18.0,562.0,6.0,129.0,155.0
-345.0,-38.0,-1028.0,-19.0,570.0,21.0,130.0,98.0
7.0,-25.0,-1217.0,7.0,553.0,27.0,134.0,83.0
109.0,60.0,-1028.0,34.0,505.0,56.0,151.0,66.0
-250.0,43.0,-268.0,-2.0,438.0,23.0,176.0,46.0
-502.0,-1.0,492.0,5.0,373.0,-12.0,191.0,54.0
-450.0,-6.0,2201.0,37.0,325.0,-15.0,200.0,15.0
-171.0,68.0,1769.0,51.0,248.0,-49.0,181.0,66.0
73.0,64.0,-625.0,67.0,176.0,2.0,178.0,54.0
96.0,20.0,-1878.0,68.0,134.0,0.0,195.0,74.0
127.0,33.0,-2607.0,18.0,98.0,-26.0,162.0,76.0
132.0,9.0,-2057.0,-20.0,43.0,-26.0,138.0,63.0
147.0,-10.0,-1282.0,-8.0,31.0,-54.0,146.0,56.0
225.0,-14.0,-768.0,27.0,27.0,-35.0,149.0,32.0
338.0,7.0,318.0,34.0,14.0,21.0,144.0,25.0
399.0,-5.0,751.0,24.0,1.0,40.0,169.0,53.0
495.0,-3.0,199.0,64.0,-34.0,21.0,180.0,207.0
471.0,-41.0,-637.0,52.0,-60.0,37.0,178.0,239.0
325.0,-114.0,-557.0,-6.0,-56.0,36.0,194.0,161.0
241.0,-59.0,95.0,-25.0,-39.0,16.0,175.0,128.0
175.0,-21.0,502.0,-56.0,-34.0,-40.0,193.0,-30.0
111.0,1.0,891.0,-90.0,-9.0,-36.0,203.0,-65.0
102.0,22.0,1257.0,-101.0,28.0,-35.0,189.0,-78.0
89.0,-7.0,1704.0,-124.0,26.0,-40.0,220.0,-217.0
72.0,7.0,1704.0,-95.0,50.0,-42.0,229.0,-98.0
24.0,13.0,695.0,-73.0,26.0,-71.0,262.0,94.0
-6.0,13.0,-200.0,-84.0,7.0,-63.0,303.0,66.0
3.0,22.0,-190.0,-44.0,9.0,-89.0,294.0,80.0
-15.0,52.0,318.0,-51.0,-21.0,28.0,315.0,116.0
12.0,37.0,-180.0,-41.0,0.0,79.0,321.0,155.0
-2.0,54.0,-1146.0,-13.0,-10.0,-25.0,256.0,147.0
-10.0,30.0,-1534.0,-8.0,-35.0,2.0,196.0,99.0
5.0,-39.0,-1427.0,24.0,-68.0,42.0,135.0,156.0
31.0,-37.0,-709.0,29.0,-67.0,20.0,69.0,94.0
65.0,-78.0,-344.0,1.0,-66.0,7.0,40.0,-5.0
43.0,-70.0,-102.0,-48.0,-79.0,6.0,25.0,-49.0
32.0,-51.0,60.0,-37.0,-50.0,43.0,30.0,73.0
41.0,-53.0,105.0,12.0,-70.0,81.0,41.0,111.0
44.0,-20.0,-171.0,22.0,-61.0,36.0,49.0,54.0
45.0,-10.0,-147.0,-45.0,-51.0,-1.0,38.0,61.0
43.0,-21.0,77.0,-41.0,-73.0,-17.0,21.0,1.0
65.0,-7.0,44.0,-36.0,-45.0,-17.0,9.0,23.0
49.0,30.0,313.0,-59.0,-99.0,19.0,4.0,-7.0
13.0,34.0,306.0,-34.0,-124.0,66.0,-32.0,-29.0
38.0,19.0,589.0,-11.0,-111.0,73.0,-53.0,-62.0
62.0,35.0,663.0,47.0,-109.0,82.0,-48.0,-85.0
26.0,64.0,415.0,-1.0,-79.0,91.0,-55.0,-36.0
-15.0,67.0,236.0,-67.0,-98.0,79.0,-68.0,-35.0
-32.0,52.0,163.0,-78.0,-103.0,88.0,-82.0,-14.0
-16.0,36.0,318.0,-84.0,-76.0,77.0,-85.0,32.0
33.0,56.0,316.0,-39.0,-76.0,84.0,-107.0,44.0
60.0,58.0,207.0,-42.0,-73.0,81.0,-120.0,-17.0
55.0,47.0,177.0,-72.0,-41.0,74.0,-114.0,-31.0
70.0,40.0,837.0,-74.0,-35.0,99.0,-116.0,-49.0
119.0,37.0,1703.0,-39.0,-30.0,104.0,-127.0,-83.0
92.0,43.0,1874.0,-14.0,-11.0,100.0,-127.0,-43.0
4.0,47.0,1794.0,33.0,-24.0,95.0,-116.0,-43.0
-26.0,77.0,976.0,34.0,-37.0,93.0,-113.0,-15.0
-43.0,45.0,-651.0,23.0,-37.0,88.0,-125.0,-17.0
-61.0,18.0,-1362.0,30.0,-71.0,102.0,-134.0,-12.0
-48.0,25.0,-1341.0,11.0,-70.0,112.0,-135.0,14.0
-60.0,0.0,-430.0,-12.0,-46.0,86.0,-140.0,104.0
-71.0,7.0,-265.0,2.0,-70.0,94.0,-131.0,292.0
-81.0,-1.0,-820.0,56.0,-110.0,99.0,-152.0,369.0
-141.0,-5.0,-833.0,37.0,-146.0,85.0,-188.0,319.0
-154.0,-34.0,-415.0,-7.0,-152.0,61.0,-198.0,164.0
-154.0,-28.0,533.0,-18.0,-157.0,14.0,-200.0,44.0
-166.0,-18.0,-291.0,26.0,-164.0,-16.0,-167.0,-97.0
-151.0,-2.0,-1231.0,60.0,-150.0,24.0,-157.0,-490.0
-164.0,16.0,-1106.0,48.0,-164.0,11.0,-143.0,-758.0
-106.0,-57.0,231.0,38.0,-168.0,-47.0,-107.0,-665.0
-82.0,-18.0,1257.0,-40.0,-136.0,49.0,-81.0,-679.0
-138.0,33.0,202.0,-5.0,-99.0,66.0,-55.0,-455.0
-109.0,10.0,-627.0,22.0,-49.0,10.0,-42.0,21.0
-96.0,10.0,-1427.0,-4.0,-25.0,38.0,-23.0,-28.0
-102.0,15.0,-1695.0,12.0,-30.0,29.0,-12.0,111.0
-102.0,87.0,-1667.0,-17.0,-40.0,11.0,15.0,135.0
-105.0,111.0,-1321.0,45.0,-49.0,45.0,15.0,112.0
-59.0,60.0,-78.0,69.0,-28.0,31.0,16.0,144.0
-18.0,13.0,174.0,64.0,-62.0,-3.0,-10.0,67.0
2.0,-11.0,1192.0,81.0,-99.0,16.0,-6.0,109.0
-28.0,-3.0,2094.0,28.0,-74.0,8.0,1.0,63.0
-79.0,4.0,1349.0,19.0,-23.0,4.0,-21.0,98.0
-98.0,-16.0,-99.0,12.0,-2.0,-18.0,-6.0,59.0
-64.0,-52.0,-1192.0,-38.0,-17.0,-36.0,-3.0,72.0
-56.0,-80.0,-585.0,-121.0,32.0,-12.0,-2.0,58.0
-41.0,-128.0,-890.0,-184.0,60.0,-18.0,-3.0,93.0
-23.0,-188.0,-1613.0,-183.0,46.0,-43.0,9.0,89.0
-39.0,-213.0,-320.0,-163.0,17.0,-54.0,18.0,80.0
-78.0,-181.0,3568.0,-157.0,35.0,-63.0,12.0,98.0
-89.0,-214.0,4000.0,-120.0,28.0,-51.0,40.0,40.0
-88.0,-168.0,1452.0,-62.0,12.0,-35.0,59.0,98.0
-67.0,-54.0,-1419.0,-84.0,37.0,-12.0,72.0,131.0
-58.0,24.0,-2435.0,-32.0,15.0,-19.0,81.0,304.0
-74.0,85.0,-2479.0,9.0,26.0,-25.0,78.0,341.0
-34.0,-6.0,-1403.0,-24.0,38.0,-43.0,100.0,235.0
-62.0,57.0,-1613.0,-11.0,19.0,-50.0,77.0,184.0
-93.0,151.0,-821.0,-68.0,11.0,-18.0,60.0,41.0
-77.0,73.0,-716.0,-54.0,-20.0,7.0,56.0,-26.0
-51.0,11.0,-1297.0,2.0,-9.0,8.0,64.0,-86.0
-43.0,-67.0,-1557.0,92.0,-3.0,-13.0,85.0,-242.0
-35.0,5.0,-971.0,202.0,-30.0,-71.0,87.0,-199.0
-4.0,67.0,-89.0,199.0,-20.0,-98.0,96.0,196.0
25.0,-10.0,278.0,116.0,-18.0,-104.0,77.0,399.0
31.0,-26.0,988.0,-47.0,-42.0,-45.0,100.0,319.0
-28.0,-36.0,2095.0,-112.0,-39.0,69.0,137.0,163.0
-9.0,-29.0,4000.0,-44.0,-50.0,112.0,126.0,43.0
33.0,-35.0,4000.0,42.0,-61.0,123.0,103.0,74.0
31.0,13.0,2795.0,61.0,-50.0,87.0,96.0,-104.0
47.0,109.0,-559.0,47.0,-19.0,48.0,110.0,-287.0
43.0,95.0,-2045.0,51.0,-17.0,64.0,93.0,-284.0
36.0,46.0,-2306.0,-9.0,-9.0,-10.0,114.0,-385.0
-5.0,-2.0,-1665.0,-11.0,23.0,-89.0,103.0,-280.0
-17.0,-52.0,-1153.0,-18.0,19.0,0.0,75.0,34.0
-21.0,-131.0,-393.0,37.0,13.0,29.0,86.0,-1.0
28.0,-147.0,467.0,73.0,7.0,-58.0,82.0,35.0
106.0,-64.0,60.0,-29.0,23.0,-61.0,83.0,35.0
77.0,-27.0,108.0,2.0,24.0,-7.0,103.0,11.0
70.0,13.0,496.0,-5.0,10.0,20.0,101.0,-85.0
110.0,25.0,611.0,-112.0,78.0,24.0,78.0,-150.0
103.0,-5.0,-38.0,-185.0,83.0,111.0,89.0,52.0
66.0,-14.0,-190.0,-224.0,82.0,81.0,62.0,-53.0
30.0,-50.0,-87.0,-163.0,142.0,68.0,62.0,43.0
24.0,-31.0,278.0,-87.0,137.0,90.0,74.0,54.0
17.0,84.0,793.0,-66.0,142.0,89.0,64.0,26.0
7.0,147.0,657.0,-50.0,155.0,91.0,78.0,91.0
22.0,179.0,567.0,-127.0,140.0,85.0,56.0,19.0
-11.0,158.0,382.0,-139.0,141.0,175.0,47.0,67.0
-36.0,116.0,354.0,-103.0,182.0,137.0,47.0,51.0
-40.0,98.0,241.0,-92.0,182.0,126.0,40.0,74.0
-29.0,50.0,137.0,-29.0,180.0,124.0,16.0,28.0
-21.0,42.0,72.0,-49.0,195.0,115.0,9.0,14.0
-40.0,-3.0,96.0,-46.0,184.0,110.0,33.0,17.0
-56.0,18.0,-74.0,-22.0,190.0,91.0,21.0,14.0
-107.0,74.0,-230.0,-75.0,194.0,70.0,26.0,33.0
-116.0,106.0,-215.0,-115.0,166.0,25.0,37.0,20.0
-126.0,127.0,-222.0,-23.0,143.0,35.0,20.0,41.0
-111.0,31.0,-120.0,71.0,166.0,16.0,28.0,9.0
-89.0,0.0,-145.0,45.0,162.0,23.0,7.0,64.0
-141.0,-35.0,-20.0,80.0,142.0,13.0,-33.0,-5.0
-150.0,-82.0,53.0,110.0,114.0,4.0,10.0,-62.0
-132.0,-21.0,2.0,96.0,129.0,8.0,-11.0,-12.0
-123.0,21.0,-13.0,38.0,132.0,2.0,-10.0,-83.0
-116.0,16.0,31.0,-38.0,99.0,-3.0,6.0,-52.0
-49.0,45.0,3.0,-17.0,98.0,-9.0,-13.0,7.0
-47.0,45.0,-7.0,18.0,86.0,8.0,-17.0,50.0
-34.0,30.0,-102.0,31.0,84.0,-26.0,-37.0,136.0
-8.0,19.0,-277.0,40.0,97.0,1.0,-32.0,145.0
-29.0,28.0,-314.0,45.0,135.0,19.0,-13.0,95.0
-16.0,56.0,-425.0,49.0,133.0,48.0,-7.0,77.0
-17.0,44.0,-369.0,45.0,147.0,90.0,-18.0,69.0
-42.0,18.0,-279.0,38.0,143.0,76.0,-15.0,80.0
-101.0,-18.0,-150.0,38.0,110.0,134.0,-14.0,103.0
-107.0,15.0,-12.0,92.0,91.0,91.0,7.0,85.0
-108.0,-6.0,14.0,92.0,41.0,39.0,-12.0,108.0
-102.0,-6.0,15.0,23.0,75.0,17.0,-21.0,86.0
-26.0,37.0,-75.0,33.0,87.0,-8.0,22.0,69.0
40.0,54.0,-104.0,12.0,84.0,49.0,6.0,92.0
40.0,74.0,-239.0,38.0,91.0,40.0,-14.0,93.0
36.0,30.0,-232.0,44.0,73.0,32.0,-6.0,71.0
47.0,15.0,86.0,16.0,94.0,54.0,-6.0,49.0
31.0,2.0,337.0,44.0,100.0,41.0,-29.0,42.0
72.0,-27.0,370.0,32.0,58.0,34.0,-15.0,21.0
97.0,-30.0,45.0,152.0,34.0,26.0,-6.0,66.0
86.0,-19.0,-113.0,459.0,23.0,8.0,-36.0,38.0
39.0,-25.0,-6.0,377.0,-8.0,24.0,-17.0,10.0
-3.0,-71.0,-68.0,-77.0,-4.0,23.0,-41.0,18.0
-34.0,-53.0,-144.0,-288.0,-19.0,6.0,-31.0,13.0
-58.0,-51.0,-224.0,-475.0,-1.0,-16.0,-32.0,31.0
-60.0,-46.0,-24.0,-442.0,-5.0,-45.0,-27.0,32.0
-25.0,-48.0,205.0,-219.0,-8.0,-40.0,-16.0,144.0
2.0,-65.0,111.0,-98.0,13.0,8.0,-58.0,239.0
62.0,-29.0,-67.0,-74.0,24.0,6.0,-26.0,190.0
228.0,-36.0,-373.0,-132.0,28.0,9.0,-26.0,210.0
530.0,-35.0,-283.0,-40.0,28.0,21.0,2.0,189.0
733.0,-54.0,15.0,-34.0,65.0,-4.0,-16.0,27.0
562.0,-82.0,105.0,10.0,61.0,8.0,-11.0,-93.0
371.0,-52.0,253.0,16.0,92.0,11.0,9.0,-380.0
187.0,-20.0,53.0,-44.0,141.0,63.0,-12.0,-601.0
127.0,-11.0,-129.0,-16.0,141.0,39.0,-5.0,-268.0
160.0,17.0,-61.0,-15.0,129.0,45.0,4.0,-63.0
-76.0,14.0,-52.0,23.0,106.0,27.0,17.0,-25.0
-457.0,16.0,-2.0,80.0,92.0,-7.0,-4.0,134.0
-672.0,35.0,-70.0,67.0,73.0,9.0,14.0,76.0
-313.0,5.0,-26.0,1.0,53.0,10.0,24.0,120.0
80.0,-30.0,-56.0,-5.0,41.0,6.0,17.0,21.0
80.0,-63.0,-75.0,-31.0,3.0,-84.0,28.0,-130.0
-225.0,-72.0,-54.0,-25.0,13.0,-80.0,19.0,-140.0
-288.0,-40.0,-68.0,-55.0,48.0,-45.0,45.0,-183.0
-319.0,-43.0,-70.0,-81.0,29.0,-10.0,41.0,-18.0
-566.0,-18.0,-144.0,-25.0,39.0,16.0,16.0,75.0
-209.0,58.0,-89.0,-19.0,60.0,70.0,41.0,62.0
492.0,67.0,-27.0,-45.0,60.0,90.0,54.0,105.0
640.0,99.0,15.0,-74.0,49.0,48.0,51.0,66.0
82.0,63.0,-5.0,-65.0,58.0,98.0,46.0,87.0
-82.0,21.0,-60.0,-30.0,93.0,69.0,41.0,72.0
-15.0,95.0,-90.0,81.0,99.0,85.0,18.0,71.0
758.0,95.0,8.0,402.0,87.0,83.0,24.0,90.0
2597.0,67.0,183.0,545.0,89.0,79.0,-4.0,50.0
2146.0,73.0,195.0,97.0,99.0,103.0,4.0,71.0
-206.0,55.0,133.0,-245.0,104.0,79.0,35.0,73.0
-1521.0,-10.0,56.0,-387.0,98.0,88.0,40.0,66.0
-2419.0,-66.0,28.0,-510.0,78.0,70.0,68.0,47.0
-2631.0,-105.0,38.0,-393.0,75.0,62.0,62.0,42.0
-2090.0,-80.0,76.0,-282.0,15.0,51.0,65.0,26.0
-1346.0,-67.0,128.0,-167.0,-2.0,24.0,41.0,12.0
-1072.0,-43.0,121.0,-124.0,26.0,18.0,56.0,16.0
-1392.0,-35.0,80.0,-38.0,47.0,29.0,51.0,5.0
-1110.0,-48.0,2.0,49.0,71.0,34.0,18.0,6.0
-183.0,28.0,-20.0,116.0,53.0,61.0,30.0,7.0
426.0,128.0,0.0,72.0,58.0,75.0,47.0,8.0
265.0,155.0,-36.0,31.0,36.0,34.0,72.0,32.0
440.0,103.0,-50.0,87.0,74.0,-11.0,62.0,39.0
837.0,60.0,-63.0,55.0,61.0,-71.0,73.0,60.0
1319.0,20.0,-80.0,52.0,49.0,-119.0,98.0,182.0
1767.0,4.0,-53.0,22.0,63.0,-125.0,75.0,255.0
1661.0,-42.0,-10.0,48.0,39.0,-39.0,70.0,203.0
1189.0,-66.0,23.0,32.0,62.0,1.0,86.0,182.0
721.0,-42.0,13.0,28.0,61.0,12.0,64.0,141.0
436.0,-47.0,5.0,6.0,38.0,68.0,70.0,7.0
287.0,-47.0,-11.0,-24.0,-2.0,110.0,73.0,-124.0
228.0,-72.0,-14.0,18.0,-36.0,161.0,77.0,-407.0
92.0,-81.0,11.0,19.0,-69.0,70.0,73.0,-718.0
-151.0,-55.0,43.0,69.0,-87.0,24.0,73.0,-350.0
122.0,-65.0,11.0,77.0,-96.0,46.0,88.0,33.0
627.0,-88.0,-28.0,37.0,-138.0,-17.0,77.0,-147.0
464.0,-89.0,-73.0,-9.0,-155.0,-15.0,78.0,13.0
174.0,-26.0,-121.0,-32.0,-211.0,-39.0,81.0,63.0
208.0,78.0,-57.0,-82.0,-220.0,-34.0,70.0,45.0
155.0,48.0,-28.0,-119.0,-222.0,29.0,62.0,60.0
-75.0,-16.0,-75.0,-167.0,-276.0,21.0,56.0,-22.0
123.0,-13.0,-74.0,-254.0,-267.0,-35.0,54.0,18.0
262.0,44.0,-50.0,-183.0,-276.0,-26.0,60.0,-19.0
896.0,76.0,-8.0,-75.0,-291.0,-3.0,66.0,36.0
1634.0,75.0,10.0,-6.0,-277.0,-17.0,82.0,63.0
973.0,115.0,23.0,15.0,-242.0,-9.0,58.0,178.0
111.0,53.0,31.0,10.0,-256.0,-45.0,60.0,243.0
-828.0,-13.0,6.0,41.0,-273.0,-33.0,78.0,174.0
-1801.0,10.0,16.0,81.0,-236.0,-14.0,37.0,89.0
-2024.0,80.0,40.0,137.0,-261.0,-24.0,40.0,-30.0
-1735.0,115.0,14.0,146.0,-268.0,-46.0,5.0,-131.0
-1357.0,53.0,18.0,126.0,-242.0,-56.0,6.0,-132.0
-1019.0,-1.0,12.0,40.0,-263.0,-20.0,4.0,-149.0
-999.0,-7.0,6.0,-36.0,-291.0,28.0,-8.0,-128.0
-676.0,37.0,20.0,8.0,-267.0,61.0,-6.0,125.0
-97.0,93.0,21.0,-23.0,-282.0,21.0,-27.0,65.0
169.0,89.0,10.0,-45.0,-299.0,-20.0,-20.0,-76.0
269.0,92.0,-17.0,-29.0,-323.0,-33.0,-47.0,-30.0
334.0,18.0,-15.0,-57.0,-356.0,-15.0,-62.0,-240.0
673.0,-63.0,-13.0,-44.0,-353.0,44.0,-69.0,-529.0
618.0,-114.0,-28.0,-43.0,-326.0,49.0,-69.0,-389.0
1116.0,-152.0,-36.0,-29.0,-315.0,33.0,-36.0,17.0
1832.0,-76.0,-42.0,-25.0,-309.0,-14.0,-7.0,-3.0
1612.0,-17.0,12.0,18.0,-274.0,-25.0,2.0,15.0
908.0,-35.0,160.0,49.0,-278.0,72.0,-17.0,40.0
72.0,-97.0,728.0,31.0,-270.0,33.0,-7.0,6.0
56.0,-106.0,2483.0,13.0,-262.0,-58.0,-16.0,148.0
460.0,-53.0,4000.0,15.0,-254.0,-26.0,0.0,156.0
241.0,-23.0,3434.0,39.0,-215.0,69.0,42.0,239.0
-418.0,-6.0,-108.0,22.0,-182.0,70.0,20.0,271.0
-1218.0,-37.0,-3095.0,16.0,-147.0,54.0,32.0,198.0
-1233.0,-18.0,-3912.0,19.0,-123.0,88.0,50.0,106.0
-960.0,45.0,-3263.0,-26.0,-67.0,54.0,44.0,32.0
-779.0,70.0,-2489.0,-84.0,-36.0,49.0,36.0,-83.0
-331.0,159.0,-1797.0,-73.0,-36.0,40.0,60.0,-149.0
-68.0,162.0,-1944.0,-76.0,-7.0,61.0,81.0,-49.0
212.0,93.0,-1823.0,19.0,36.0,64.0,73.0,167.0
-67.0,53.0,-1101.0,132.0,63.0,47.0,98.0,239.0
-175.0,0.0,-454.0,105.0,103.0,54.0,92.0,123.0
144.0,-30.0,-82.0,61.0,114.0,61.0,116.0,120.0
-81.0,-13.0,150.0,-6.0,131.0,82.0,123.0,-3.0
-86.0,40.0,708.0,4.0,153.0,34.0,124.0,-124.0
73.0,41.0,858.0,35.0,131.0,-13.0,143.0,-394.0
367.0,47.0,703.0,-8.0,123.0,-51.0,136.0,-523.0
1375.0,38.0,606.0,-20.0,123.0,-38.0,130.0,-62.0
1637.0,34.0,573.0,-21.0,125.0,6.0,105.0,46.0
911.0,16.0,520.0,-9.0,130.0,27.0,85.0,11.0
395.0,-26.0,496.0,-5.0,129.0,48.0,70.0,103.0
-125.0,-11.0,463.0,2.0,154.0,54.0,26.0,59.0
-915.0,-19.0,372.0,-10.0,157.0,26.0,21.0,123.0
-1149.0,-67.0,337.0,-25.0,176.0,13.0,40.0,97.0
-763.0,-62.0,290.0,-53.0,171.0,26.0,69.0,127.0
-131.0,4.0,331.0,-57.0,178.0,21.0,93.0,146.0
212.0,40.0,290.0,-51.0,180.0,5.0,88.0,106.0
-4.0,99.0,328.0,-54.0,171.0,0.0,120.0,137.0
-280.0,50.0,385.0,-12.0,219.0,16.0,119.0,131.0
-641.0,8.0,634.0,-8.0,202.0,4.0,81.0,111.0
-541.0,62.0,1487.0,-19.0,193.0,-4.0,33.0,71.0
-739.0,57.0,1497.0,-29.0,210.0,26.0,-14.0,40.0
-1087.0,87.0,337.0,-65.0,207.0,-5.0,-35.0,40.0
-1196.0,52.0,-401.0,-59.0,237.0,-11.0,-84.0,88.0
-1066.0,-35.0,-615.0,-41.0,219.0,16.0,-85.0,76.0
-513.0,82.0,-114.0,-51.0,187.0,3.0,-63.0,33.0
-599.0,119.0,207.0,-59.0,193.0,32.0,-39.0,53.0
-365.0,17.0,-454.0,-24.0,188.0,45.0,-55.0,65.0
127.0,53.0,-781.0,2.0,206.0,36.0,-64.0,47.0
444.0,1.0,-776.0,10.0,165.0,28.0,-69.0,20.0
738.0,-12.0,-429.0,21.0,122.0,28.0,-125.0,34.0
725.0,15.0,-363.0,56.0,78.0,32.0,-138.0,35.0
863.0,-51.0,-135.0,33.0,88.0,36.0,-159.0,50.0
935.0,-71.0,400.0,9.0,92.0,32.0,-174.0,60.0
1216.0,-56.0,598.0,-17.0,55.0,51.0,-200.0,-9.0
1149.0,-58.0,1041.0,-44.0,36.0,75.0,-204.0,-28.0
870.0,-74.0,923.0,-76.0,28.0,66.0,-192.0,13.0
1637.0,-87.0,433.0,-107.0,24.0,79.0,-226.0,12.0
2092.0,-139.0,480.0,-107.0,-27.0,59.0,-206.0,8.0
2127.0,-156.0,976.0,-107.0,-56.0,58.0,-186.0,1.0
2157.0,-159.0,669.0,-84.0,-65.0,67.0,-197.0,-3.0
1181.0,-121.0,-282.0,-108.0,-54.0,50.0,-163.0,9.0
308.0,-65.0,-971.0,-83.0,-74.0,80.0,-159.0,13.0
-527.0,-114.0,-890.0,-32.0,-122.0,81.0,-161.0,21.0
-1127.0,-75.0,190.0,-36.0,-168.0,80.0,-163.0,-10.0
-883.0,-43.0,1062.0,-14.0,-164.0,123.0,-161.0,-24.0
-1233.0,-57.0,572.0,-3.0,-163.0,119.0,-149.0,22.0
-1788.0,-19.0,-776.0,-24.0,-195.0,86.0,-151.0,54.0
-2220.0,-19.0,-1302.0,-8.0,-168.0,-40.0,-130.0,68.0
-2206.0,48.0,-1602.0,5.0,-157.0,-167.0,-76.0,53.0
-1560.0,103.0,-1427.0,12.0,-123.0,-91.0,-54.0,111.0
-1175.0,143.0,-866.0,69.0,-92.0,-64.0,-56.0,169.0
-1280.0,124.0,-557.0,80.0,-81.0,-112.0,-12.0,76.0
-1365.0,83.0,-225.0,92.0,-20.0,-3.0,-15.0,63.0
-1521.0,85.0,385.0,75.0,55.0,67.0,-7.0,190.0
-1540.0,45.0,621.0,71.0,109.0,124.0,40.0,334.0
-1045.0,112.0,266.0,57.0,192.0,69.0,50.0,174.0
-1131.0,213.0,415.0,-6.0,237.0,-22.0,50.0,58.0
-571.0,182.0,7.0,-40.0,293.0,-6.0,90.0,112.0
473.0,83.0,-450.0,-59.0,373.0,11.0,90.0,-334.0
1038.0,30.0,-342.0,-123.0,432.0,34.0,83.0,-730.0
1234.0,10.0,-108.0,-116.0,480.0,-19.0,129.0,-370.0
1246.0,-43.0,205.0,-44.0,509.0,-63.0,167.0,98.0
1238.0,-72.0,263.0,-37.0,537.0,-51.0,206.0,18.0
789.0,-47.0,335.0,-71.0,532.0,-20.0,225.0,85.0
920.0,-69.0,454.0,-46.0,556.0,4.0,242.0,95.0
804.0,-79.0,331.0,-28.0,538.0,31.0,262.0,56.0
488.0,-83.0,-103.0,-59.0,440.0,76.0,294.0,122.0
603.0,-60.0,-67.0,-44.0,393.0,78.0,286.0,30.0
395.0,-26.0,46.0,-60.0,325.0,-5.0,283.0,90.0
37.0,-72.0,102.0,-37.0,249.0,-1.0,276.0,47.0
-243.0,-77.0,528.0,-17.0,180.0,0.0,266.0,72.0
-96.0,-47.0,1184.0,-10.0,125.0,-20.0,283.0,37.0
-280.0,-3.0,1021.0,8.0,98.0,4.0,294.0,40.0
-382.0,-4.0,-180.0,-20.0,61.0,-7.0,297.0,78.0
202.0,-3.0,-625.0,14.0,34.0,29.0,300.0,38.0
686.0,24.0,-757.0,20.0,36.0,13.0,333.0,54.0
492.0,6.0,-781.0,19.0,29.0,6.0,311.0,54.0
-1.0,19.0,-512.0,22.0,12.0,46.0,326.0,64.0
-144.0,33.0,-29.0,8.0,-9.0,22.0,399.0,40.0
-403.0,80.0,402.0,22.0,7.0,-12.0,368.0,60.0
-453.0,112.0,-102.0,2.0,-7.0,-29.0,384.0,79.0
-351.0,74.0,-155.0,16.0,-16.0,33.0,368.0,77.0
-327.0,48.0,101.0,3.0,36.0,28.0,310.0,51.0
-431.0,50.0,-32.0,-64.0,20.0,-15.0,268.0,72.0
-428.0,44.0,-480.0,-30.0,31.0,2.0,207.0,79.0
-285.0,20.0,-906.0,1.0,60.0,-3.0,148.0,40.0
-56.0,15.0,-739.0,-4.0,41.0,11.0,131.0,65.0
49.0,11.0,-447.0,37.0,42.0,-23.0,142.0,66.0
3.0,-19.0,-98.0,12.0,28.0,-15.0,97.0,75.0
95.0,-78.0,123.0,-14.0,49.0,-4.0,93.0,41.0
301.0,-70.0,372.0,-9.0,53.0,-14.0,64.0,10.0
408.0,-17.0,408.0,22.0,46.0,4.0,25.0,10.0
406.0,-23.0,439.0,20.0,66.0,-24.0,-17.0,-29.0
399.0,-18.0,410.0,-19.0,75.0,-14.0,-54.0,-70.0
358.0,-27.0,296.0,15.0,70.0,-29.0,-58.0,-73.0
371.0,-36.0,331.0,-22.0,87.0,-39.0,-94.0,17.0
375.0,-42.0,223.0,-85.0,111.0,-38.0,-98.0,102.0
325.0,-65.0,238.0,-54.0,93.0,-24.0,-108.0,164.0
266.0,-52.0,241.0,-42.0,97.0,18.0,-98.0,218.0
250.0,-12.0,219.0,0.0,94.0,6.0,-116.0,241.0
222.0,-15.0,135.0,25.0,85.0,41.0,-139.0,129.0
187.0,-10.0,-35.0,-44.0,78.0,53.0,-128.0,79.0
204.0,14.0,-187.0,-137.0,58.0,46.0,-156.0,128.0
157.0,4.0,-141.0,-109.0,53.0,23.0,-161.0,14.0
147.0,14.0,136.0,-39.0,75.0,32.0,-146.0,29.0
151.0,15.0,408.0,10.0,105.0,84.0,-163.0,-64.0
114.0,25.0,1023.0,16.0,97.0,64.0,-185.0,-454.0
104.0,17.0,2395.0,-59.0,112.0,48.0,-185.0,-360.0
322.0,43.0,4000.0,-65.0,104.0,48.0,-159.0,-258.0
713.0,43.0,3316.0,-9.0,108.0,47.0,-140.0,-724.0
635.0,31.0,15.0,22.0,150.0,88.0,-152.0,-687.0
320.0,48.0,-2566.0,-6.0,154.0,70.0,-136.0,-409.0
108.0,60.0,-3540.0,-51.0,151.0,57.0,-123.0,-81.0
-193.0,34.0,-3083.0,-68.0,122.0,142.0,-133.0,196.0
-302.0,5.0,-2306.0,-89.0,109.0,119.0,-147.0,112.0
-413.0,45.0,-1878.0,-26.0,88.0,103.0,-169.0,148.0
-484.0,24.0,-1085.0,34.0,61.0,67.0,-188.0,143.0
-553.0,0.0,-688.0,20.0,55.0,-71.0,-167.0,172.0
-777.0,18.0,-578.0,11.0,37.0,10.0,-172.0,107.0
-832.0,41.0,-568.0,104.0,-8.0,123.0,-198.0,90.0
-523.0,67.0,-2.0,204.0,-25.0,110.0,-179.0,104.0
-286.0,50.0,1322.0,152.0,-70.0,93.0,-171.0,96.0
-183.0,30.0,1871.0,99.0,-117.0,42.0,-176.0,120.0
-24.0,14.0,982.0,62.0,-103.0,94.0,-200.0,90.0
-12.0,-21.0,-38.0,39.0,-110.0,148.0,-169.0,98.0
47.0,-13.0,-596.0,26.0,-96.0,96.0,-147.0,66.0
43.0,-7.0,-664.0,-11.0,-157.0,113.0,-127.0,61.0
1.0,-14.0,-507.0,-62.0,-177.0,107.0,-121.0,-29.0
16.0,-18.0,-381.0,-127.0,-170.0,93.0,-123.0,-15.0
1.0,-16.0,-222.0,-99.0,-172.0,94.0,-79.0,31.0
24.0,1.0,-77.0,-95.0,-123.0,83.0,-65.0,14.0
-14.0,-17.0,207.0,-124.0,-118.0,81.0,-33.0,38.0
-21.0,-31.0,349.0,-115.0,-79.0,33.0,25.0,70.0
-20.0,-38.0,520.0,-85.0,-67.0,29.0,37.0,97.0
-48.0,-22.0,937.0,-48.0,-63.0,67.0,54.0,54.0
-63.0,-24.0,1168.0,-25.0,-56.0,37.0,61.0,25.0
-63.0,-37.0,1243.0,-7.0,-56.0,10.0,70.0,47.0
-67.0,-20.0,1939.0,-51.0,-33.0,19.0,88.0,26.0
-70.0,-23.0,1233.0,-74.0,-31.0,22.0,77.0,9.0
-59.0,1.0,-585.0,5.0,-29.0,-3.0,85.0,33.0
-78.0,-11.0,-1387.0,49.0,-23.0,1.0,114.0,17.0
-78.0,-13.0,-2007.0,23.0,-18.0,11.0,116.0,9.0
-75.0,-3.0,-1843.0,-32.0,13.0,-7.0,136.0,10.0
-70.0,2.0,-1427.0,-80.0,9.0,25.0,147.0,10.0
-76.0,17.0,-1215.0,-59.0,6.0,-10.0,142.0,41.0
-67.0,36.0,-768.0,30.0,33.0,-6.0,151.0,61.0
-70.0,29.0,-371.0,39.0,36.0,4.0,145.0,46.0
-85.0,16.0,317.0,72.0,24.0,-39.0,142.0,40.0
-73.0,17.0,1088.0,93.0,47.0,-45.0,143.0,37.0
-94.0,4.0,1508.0,81.0,70.0,-51.0,136.0,22.0
-98.0,21.0,781.0,85.0,60.0,-48.0,124.0,18.0
-120.0,32.0,-141.0,29.0,27.0,-51.0,120.0,17.0
-101.0,18.0,-255.0,27.0,14.0,-35.0,102.0,30.0
-50.0,-8.0,3.0,10.0,13.0,-18.0,110.0,27.0
-44.0,0.0,198.0,-24.0,-14.0,0.0,69.0,52.0
-1.0,5.0,119.0,-56.0,-18.0,20.0,59.0,94.0
11.0,-41.0,138.0,-95.0,-33.0,-4.0,68.0,70.0
-26.0,-8.0,236.0,-103.0,-45.0,-112.0,56.0,68.0
-31.0,34.0,337.0,-102.0,-16.0,-142.0,81.0,74.0
-24.0,8.0,432.0,-75.0,0.0,-54.0,65.0,18.0
11.0,9.0,263.0,-84.0,-24.0,-53.0,65.0,-88.0
33.0,7.0,180.0,-103.0,-55.0,-56.0,41.0,-136.0
30.0,25.0,541.0,-81.0,-58.0,-12.0,46.0,-16.0
64.0,7.0,793.0,-40.0,-70.0,3.0,46.0,29.0
69.0,-42.0,335.0,-82.0,-51.0,42.0,50.0,-21.0
24.0,-11.0,-445.0,-125.0,-67.0,111.0,34.0,40.0
3.0,12.0,-557.0,-107.0,-78.0,161.0,28.0,31.0
2.0,32.0,-401.0,-59.0,-49.0,89.0,47.0,-28.0
18.0,2.0,-389.0,57.0,-74.0,36.0,26.0,12.0
4.0,2.0,-110.0,120.0,-60.0,50.0,38.0,18.0
24.0,2.0,1314.0,106.0,-61.0,-43.0,29.0,7.0
50.0,-47.0,3499.0,38.0,-95.0,-161.0,51.0,6.0
9.0,-27.0,4000.0,-63.0,-89.0,-193.0,56.0,7.0
-53.0,63.0,3380.0,-56.0,-102.0,-91.0,42.0,3.0
-48.0,75.0,317.0,-15.0,-108.0,17.0,39.0,0.0
-8.0,51.0,-1779.0,11.0,-95.0,23.0,48.0,-11.0
7.0,43.0,-3461.0,-9.0,-103.0,36.0,45.0,-48.0
25.0,34.0,-4000.0,-66.0,-113.0,66.0,18.0,-26.0
-11.0,28.0,-3546.0,-54.0,-116.0,39.0,34.0,-17.0
-2.0,20.0,-2566.0,-42.0,-138.0,22.0,36.0,-30.0
16.0,41.0,-450.0,-18.0,-122.0,22.0,35.0,-10.0
-6.0,51.0,-297.0,102.0,-144.0,-9.0,32.0,-11.0
3.0,77.0,-1387.0,171.0,-140.0,18.0,31.0,12.0
17.0,36.0,-1794.0,138.0,-134.0,14.0,46.0,8.0
-4.0,-10.0,-898.0,113.0,-148.0,36.0,37.0,15.0
-1.0,-1.0,336.0,91.0,-123.0,69.0,28.0,80.0
8.0,-42.0,533.0,48.0,-116.0,49.0,15.0,120.0
-12.0,-118.0,872.0,-17.0,-93.0,40.0,-2.0,83.0
-1.0,-114.0,511.0,-137.0,-70.0,48.0,0.0,-27.0
-5.0,-92.0,288.0,-104.0,-43.0,40.0,1.0,-65.0
-14.0,-165.0,170.0,-51.0,-54.0,25.0,24.0,-36.0
-2.0,-165.0,256.0,-34.0,-52.0,54.0,21.0,54.0
1.0,-68.0,988.0,8.0,-53.0,51.0,21.0,-7.0
-51.0,18.0,1053.0,-47.0,-47.0,48.0,3.0,-70.0
-82.0,17.0,779.0,-54.0,-12.0,57.0,16.0,97.0
-111.0,29.0,110.0,4.0,-4.0,58.0,48.0,-22.0
-96.0,40.0,-576.0,-34.0,28.0,63.0,38.0,-105.0
-95.0,-3.0,-841.0,-46.0,23.0,70.0,54.0,-147.0
-106.0,-2.0,-912.0,-18.0,9.0,123.0,48.0,-325.0
-77.0,17.0,-536.0,-11.0,26.0,144.0,40.0,-62.0
-111.0,30.0,-393.0,27.0,21.0,158.0,36.0,207.0
-113.0,-37.0,-15.0,8.0,5.0,158.0,44.0,194.0
-93.0,-99.0,988.0,-3.0,-10.0,131.0,59.0,120.0
-99.0,-87.0,975.0,-2.0,-16.0,56.0,50.0,108.0
-81.0,16.0,364.0,-22.0,13.0,-22.0,65.0,134.0
-50.0,125.0,57.0,-24.0,31.0,-38.0,71.0,94.0
-40.0,160.0,142.0,-20.0,43.0,-53.0,82.0,111.0
-1.0,174.0,316.0,-45.0,45.0,1.0,67.0,120.0
-6.0,150.0,331.0,-74.0,23.0,93.0,65.0,128.0
-34.0,99.0,541.0,-22.0,66.0,175.0,72.0,228.0
-25.0,65.0,716.0,76.0,49.0,197.0,74.0,344.0
-77.0,36.0,760.0,45.0,25.0,129.0,65.0,276.0
-87.0,-1.0,590.0,-21.0,-4.0,77.0,40.0,163.0
-110.0,17.0,164.0,-33.0,-33.0,47.0,67.0,124.0
-147.0,-13.0,56.0,-60.0,4.0,68.0,53.0,17.0
-136.0,-38.0,280.0,-14.0,-31.0,25.0,24.0,-89.0
-140.0,-48.0,139.0,62.0,5.0,54.0,12.0,-345.0
-147.0,-46.0,189.0,60.0,12.0,68.0,-25.0,-565.0
-125.0,-5.0,205.0,-26.0,11.0,16.0,-41.0,-188.0
-96.0,12.0,-432.0,-60.0,18.0,39.0,-42.0,254.0
-105.0,7.0,-285.0,-50.0,-10.0,25.0,-33.0,163.0
-86.0,28.0,564.0,-82.0,-8.0,10.0,-32.0,134.0
-92.0,14.0,787.0,-73.0,-13.0,56.0,-11.0,89.0
-95.0,-6.0,142.0,-79.0,3.0,81.0,-11.0,6.0
-62.0,-18.0,76.0,-41.0,12.0,57.0,-38.0,-49.0
-76.0,-26.0,256.0,-1.0,43.0,65.0,-73.0,-206.0
-132.0,-31.0,-111.0,-28.0,50.0,54.0,-72.0,-454.0
-179.0,-82.0,-380.0,-33.0,70.0,74.0,-60.0,-443.0
-169.0,-83.0,-763.0,-88.0,95.0,86.0,-65.0,31.0
-120.0,-37.0,-682.0,-64.0,89.0,57.0,-47.0,47.0
-46.0,21.0,-678.0,-44.0,151.0,71.0,-54.0,6.0
7.0,5.0,-741.0,-61.0,201.0,71.0,-45.0,102.0
4.0,-6.0,-557.0,-4.0,209.0,64.0,-56.0,62.0
-21.0,7.0,-673.0,-48.0,242.0,12.0,-69.0,95.0
8.0,11.0,-633.0,-29.0,253.0,-23.0,-44.0,103.0
50.0,19.0,-265.0,-40.0,302.0,-76.0,-36.0,147.0
63.0,2.0,517.0,-31.0,327.0,-167.0,-21.0,178.0
62.0,3.0,686.0,7.0,320.0,-35.0,-40.0,213.0
61.0,-7.0,178.0,-23.0,354.0,54.0,-33.0,146.0
67.0,1.0,-310.0,-24.0,358.0,12.0,8.0,148.0
52.0,9.0,-354.0,-25.0,367.0,40.0,-15.0,122.0
82.0,36.0,36.0,16.0,385.0,11.0,14.0,83.0
114.0,58.0,-29.0,42.0,395.0,18.0,33.0,96.0
143.0,19.0,-163.0,38.0,397.0,19.0,-2.0,88.0
163.0,3.0,-251.0,36.0,406.0,13.0,-4.0,67.0
134.0,-4.0,-298.0,41.0,440.0,23.0,29.0,43.0
144.0,13.0,-198.0,81.0,440.0,-8.0,34.0,70.0
169.0,-6.0,-247.0,69.0,428.0,-3.0,16.0,17.0
253.0,-19.0,-152.0,34.0,392.0,-6.0,42.0,43.0
406.0,-4.0,93.0,25.0,375.0,-22.0,32.0,43.0
580.0,-5.0,390.0,16.0,353.0,-24.0,27.0,40.0
914.0,15.0,541.0,29.0,332.0,-23.0,46.0,111.0
1051.0,8.0,573.0,6.0,309.0,-36.0,50.0,200.0
627.0,1.0,467.0,-49.0,318.0,-26.0,79.0,249.0
277.0,8.0,345.0,-25.0,351.0,19.0,76.0,147.0
-113.0,4.0,277.0,-44.0,301.0,62.0,93.0,121.0
-201.0,-10.0,133.0,-64.0,264.0,99.0,83.0,86.0
201.0,-18.0,100.0,-32.0,237.0,66.0,90.0,37.0
281.0,9.0,40.0,-50.0,190.0,30.0,79.0,-72.0
-48.0,24.0,34.0,-54.0,187.0,27.0,50.0,-301.0
-1039.0,1.0,6.0,-44.0,157.0,-3.0,79.0,-386.0
-1479.0,-12.0,7.0,-50.0,118.0,-129.0,50.0,-121.0
-496.0,11.0,-14.0,-33.0,77.0,-169.0,51.0,59.0
825.0,1.0,-79.0,-31.0,38.0,-53.0,33.0,-127.0
1569.0,-52.0,-13.0,-28.0,42.0,-50.0,39.0,17.0
778.0,-93.0,-57.0,-15.0,24.0,-43.0,31.0,60.0
-457.0,-52.0,-81.0,-23.0,0.0,-32.0,23.0,-24.0
-518.0,5.0,-68.0,-38.0,0.0,-79.0,43.0,47.0
-323.0,30.0,-24.0,-41.0,13.0,-16.0,6.0,28.0
438.0,55.0,-10.0,-99.0,6.0,15.0,45.0,81.0
1433.0,-1.0,-4.0,-76.0,-20.0,20.0,36.0,43.0
1051.0,-66.0,18.0,-29.0,-28.0,40.0,40.0,53.0
-8.0,-19.0,-14.0,-21.0,-36.0,36.0,81.0,84.0
-1175.0,-5.0,-42.0,-22.0,-54.0,73.0,77.0,83.0
-1866.0,7.0,-99.0,-1.0,-50.0,73.0,73.0,117.0
-1782.0,94.0,-78.0,49.0,-49.0,40.0,53.0,103.0
-1487.0,140.0,-36.0,60.0,-118.0,64.0,45.0,105.0
-321.0,96.0,-38.0,53.0,-114.0,41.0,29.0,63.0
160.0,42.0,-48.0,38.0,-129.0,39.0,58.0,32.0
25.0,44.0,-45.0,16.0,-138.0,49.0,66.0,14.0
-453.0,4.0,-75.0,33.0,-122.0,56.0,54.0,-4.0
-1202.0,-6.0,-82.0,-29.0,-116.0,48.0,61.0,92.0
-1007.0,44.0,-70.0,-70.0,-85.0,22.0,47.0,190.0
-361.0,114.0,-87.0,-45.0,-131.0,39.0,46.0,128.0
855.0,144.0,-67.0,-57.0,-117.0,19.0,37.0,60.0
929.0,99.0,-74.0,-71.0,-98.0,22.0,23.0,14.0
435.0,43.0,-82.0,-72.0,-168.0,-37.0,41.0,-96.0
580.0,-56.0,-66.0,-27.0,-139.0,-33.0,23.0,-166.0
212.0,-52.0,-31.0,-22.0,-91.0,-6.0,10.0,-259.0
212.0,-78.0,-9.0,-28.0,-168.0,-30.0,21.0,-346.0
186.0,-128.0,7.0,-19.0,-180.0,-13.0,17.0,-126.0
119.0,-56.0,0.0,-7.0,-176.0,49.0,24.0,44.0
85.0,-53.0,-3.0,-17.0,-153.0,154.0,-6.0,-55.0
130.0,-73.0,4.0,-41.0,-168.0,58.0,-13.0,26.0
465.0,-141.0,38.0,1.0,-203.0,12.0,-6.0,84.0
408.0,-53.0,80.0,18.0,-172.0,46.0,-14.0,90.0
-13.0,63.0,64.0,-13.0,-214.0,15.0,-4.0,87.0
-384.0,79.0,52.0,-37.0,-205.0,22.0,2.0,42.0
198.0,55.0,38.0,-30.0,-248.0,-11.0,17.0,47.0
238.0,41.0,17.0,-22.0,-245.0,5.0,24.0,31.0
-286.0,33.0,-24.0,-5.0,-214.0,-36.0,17.0,62.0
-170.0,66.0,-37.0,-6.0,-222.0,-25.0,24.0,44.0
-68.0,186.0,-20.0,5.0,-246.0,-53.0,10.0,24.0
-301.0,63.0,-3.0,5.0,-267.0,-107.0,5.0,35.0
-365.0,14.0,-11.0,8.0,-274.0,-26.0,39.0,13.0
47.0,62.0,-12.0,25.0,-306.0,-17.0,42.0,-25.0
342.0,91.0,2.0,12.0,-291.0,13.0,-15.0,97.0
436.0,148.0,-22.0,0.0,-278.0,51.0,-37.0,241.0
169.0,40.0,-3.0,9.0,-277.0,84.0,-19.0,119.0
524.0,-34.0,-16.0,27.0,-240.0,81.0,-51.0,120.0
994.0,-127.0,-1.0,-29.0,-195.0,7.0,-48.0,92.0
725.0,-133.0,5.0,-11.0,-208.0,-66.0,-9.0,-105.0
603.0,-16.0,-30.0,11.0,-177.0,-67.0,-11.0,-37.0
544.0,-13.0,-14.0,11.0,-142.0,-6.0,-17.0,-46.0
346.0,-64.0,-16.0,13.0,-150.0,3.0,-12.0,-158.0
201.0,-91.0,8.0,-11.0,-162.0,10.0,-33.0,34.0
-224.0,-118.0,-22.0,29.0,-163.0,42.0,-44.0,66.0
-566.0,-168.0,-11.0,0.0,-150.0,24.0,-11.0,-96.0
-443.0,-169.0,21.0,-22.0,-149.0,64.0,-9.0,-158.0
-110.0,-88.0,253.0,-37.0,-114.0,64.0,-26.0,-460.0
771.0,-84.0,1241.0,-65.0,-85.0,38.0,-17.0,-563.0
2793.0,-204.0,2859.0,-35.0,-99.0,30.0,9.0,-169.0
4000.0,-153.0,4000.0,8.0,-99.0,36.0,28.0,40.0
4000.0,-16.0,3072.0,-29.0,-53.0,62.0,54.0,-66.0
2410.0,-44.0,-1146.0,-83.0,-70.0,47.0,85.0,39.0
-575.0,-59.0,-4000.0,-67.0,-76.0,68.0,92.0,31.0
-2693.0,15.0,-4000.0,-16.0,-23.0,57.0,106.0,32.0
-3441.0,47.0,-3896.0,-29.0,-49.0,68.0,79.0,63.0
-3550.0,38.0,-2429.0,-91.0,-1.0,47.0,77.0,10.0
-2499.0,28.0,-1599.0,-107.0,7.0,36.0,107.0,31.0
-1866.0,51.0,-747.0,-40.0,-30.0,24.0,83.0,-3.0
-1560.0,108.0,-606.0,154.0,35.0,-16.0,79.0,33.0
-1540.0,93.0,-447.0,190.0,-10.0,7.0,49.0,1.0
-1292.0,102.0,-324.0,139.0,13.0,8.0,24.0,-16.0
-1699.0,105.0,-252.0,80.0,64.0,15.0,74.0,-17.0
-1605.0,134.0,-81.0,-76.0,39.0,10.0,79.0,1.0
-889.0,135.0,126.0,-63.0,104.0,39.0,62.0,22.0
-691.0,95.0,385.0,-36.0,73.0,65.0,109.0,-2.0
131.0,106.0,425.0,2.0,60.0,41.0,112.0,20.0
680.0,85.0,467.0,19.0,55.0,36.0,87.0,5.0
825.0,105.0,349.0,-1.0,73.0,35.0,78.0,8.0
758.0,70.0,476.0,-10.0,126.0,28.0,54.0,-6.0
315.0,21.0,559.0,-41.0,123.0,22.0,43.0,-14.0
60.0,19.0,630.0,14.0,159.0,25.0,41.0,22.0
570.0,-15.0,651.0,-3.0,193.0,30.0,41.0,33.0
979.0,-42.0,541.0,-16.0,237.0,20.0,52.0,13.0
1606.0,-135.0,460.0,-34.0,265.0,32.0,77.0,33.0
1726.0,-149.0,410.0,-44.0,296.0,33.0,87.0,25.0
1059.0,-66.0,598.0,-26.0,280.0,27.0,101.0,22.0
1625.0,-14.0,728.0,-34.0,261.0,50.0,90.0,34.0
1541.0,25.0,793.0,-30.0,260.0,54.0,79.0,41.0
114.0,51.0,655.0,-30.0,227.0,62.0,54.0,51.0
-844.0,105.0,345.0,-26.0,195.0,57.0,19.0,38.0
-1076.0,87.0,164.0,-26.0,151.0,40.0,-18.0,41.0
-1175.0,2.0,129.0,-36.0,159.0,50.0,-48.0,23.0
-1104.0,9.0,184.0,-16.0,138.0,75.0,-33.0,18.0
-1339.0,48.0,215.0,-17.0,106.0,66.0,-59.0,11.0
-1495.0,77.0,374.0,-72.0,92.0,23.0,-53.0,-1.0
-1540.0,140.0,223.0,-72.0,63.0,41.0,-49.0,22.0
-1394.0,135.0,-287.0,-89.0,49.0,37.0,-79.0,20.0
-889.0,86.0,-454.0,-53.0,30.0,25.0,-90.0,41.0
-444.0,23.0,-512.0,-9.0,-3.0,41.0,-117.0,17.0
126.0,40.0,-576.0,-37.0,8.0,25.0,-117.0,40.0
776.0,138.0,-315.0,-20.0,24.0,33.0,-120.0,47.0
1065.0,60.0,-30.0,-25.0,23.0,50.0,-121.0,37.0
977.0,-74.0,3.0,0.0,31.0,38.0,-108.0,53.0
994.0,-57.0,-9.0,11.0,5.0,21.0,-109.0,23.0
778.0,-48.0,-59.0,-9.0,20.0,47.0,-97.0,5.0
716.0,-60.0,-225.0,-13.0,66.0,48.0,-82.0,41.0
1006.0,-64.0,-198.0,-45.0,82.0,57.0,-91.0,66.0
1240.0,-70.0,104.0,15.0,102.0,28.0,-69.0,46.0
1104.0,-52.0,402.0,23.0,88.0,22.0,-72.0,26.0
583.0,-75.0,467.0,-35.0,58.0,54.0,-98.0,16.0
36.0,-34.0,382.0,-67.0,20.0,41.0,-77.0,1.0
-152.0,-28.0,303.0,-99.0,1.0,69.0,-73.0,-62.0
-309.0,-27.0,202.0,-53.0,2.0,37.0,-87.0,24.0
-604.0,-37.0,152.0,-7.0,-7.0,17.0,-98.0,63.0
-203.0,-95.0,201.0,8.0,-45.0,34.0,-109.0,21.0
-24.0,-82.0,166.0,4.0,-40.0,41.0,-98.0,76.0
-185.0,-47.0,95.0,-20.0,-30.0,50.0,-105.0,37.0
-260.0,-65.0,546.0,-87.0,-45.0,54.0,-108.0,17.0
-388.0,-82.0,1491.0,-88.0,-7.0,58.0,-83.0,-166.0
-396.0,-60.0,1249.0,-69.0,66.0,41.0,-73.0,-221.0
-307.0,-37.0,-94.0,-22.0,78.0,72.0,-30.0,116.0
-96.0,46.0,-1063.0,11.0,39.0,76.0,-30.0,176.0
-88.0,52.0,-1362.0,37.0,35.0,74.0,-19.0,98.0
-164.0,-14.0,-906.0,47.0,24.0,71.0,-26.0,80.0
-155.0,-24.0,-727.0,8.0,5.0,71.0,-37.0,6.0
-177.0,-20.0,-385.0,-1.0,-48.0,40.0,-11.0,-50.0
-201.0,21.0,402.0,-12.0,-105.0,-5.0,-27.0,-126.0
-9.0,38.0,476.0,-12.0,-116.0,-22.0,1.0,-232.0
243.0,33.0,384.0,27.0,-139.0,-63.0,12.0,-292.0
204.0,28.0,569.0,23.0,-92.0,4.0,42.0,-42.0
204.0,7.0,1936.0,40.0,-46.0,49.0,85.0,46.0
318.0,28.0,2548.0,59.0,-62.0,48.0,62.0,0.0
294.0,-1.0,427.0,9.0,-114.0,45.0,74.0,62.0
259.0,-12.0,-1557.0,-13.0,-187.0,17.0,104.0,2.0
162.0,21.0,-2119.0,-28.0,-239.0,7.0,116.0,50.0
135.0,-11.0,-2303.0,23.0,-276.0,-74.0,132.0,51.0
166.0,-15.0,-2429.0,17.0,-285.0,-78.0,163.0,44.0
99.0,-15.0,-2369.0,-37.0,-222.0,-59.0,196.0,27.0
40.0,5.0,-1492.0,-14.0,-136.0,-19.0,236.0,44.0
-84.0,-10.0,-358.0,5.0,-70.0,17.0,294.0,71.0
-32.0,-45.0,-163.0,12.0,-2.0,-21.0,326.0,52.0
-13.0,-7.0,13.0,1.0,78.0,-25.0,376.0,76.0
-55.0,-1.0,546.0,19.0,103.0,-101.0,404.0,27.0
-48.0,2.0,566.0,24.0,167.0,-89.0,416.0,0.0
-99.0,23.0,508.0,40.0,184.0,-79.0,470.0,-52.0
-225.0,-6.0,573.0,38.0,166.0,-41.0,481.0,-86.0
-544.0,11.0,612.0,8.0,151.0,1.0,472.0,-98.0
-649.0,58.0,825.0,-34.0,100.0,-40.0,441.0,-26.0
-502.0,68.0,866.0,-73.0,49.0,-22.0,457.0,41.0
-474.0,95.0,728.0,-77.0,-10.0,-40.0,457.0,42.0
-628.0,49.0,1041.0,-78.0,-78.0,-24.0,403.0,54.0
-518.0,58.0,1835.0,-51.0,-152.0,-34.0,380.0,56.0
-142.0,95.0,1571.0,-76.0,-211.0,-29.0,303.0,32.0
125.0,52.0,191.0,-123.0,-229.0,-27.0,220.0,20.0
141.0,23.0,-716.0,-86.0,-229.0,-22.0,194.0,44.0
101.0,16.0,-1333.0,-35.0,-211.0,-21.0,155.0,54.0
222.0,23.0,-1468.0,4.0,-209.0,-39.0,123.0,68.0
92.0,13.0,-1035.0,30.0,-205.0,-12.0,133.0,66.0
-85.0,1.0,-433.0,49.0,-252.0,-22.0,110.0,64.0
-150.0,5.0,128.0,64.0,-234.0,-28.0,86.0,66.0
-248.0,14.0,77.0,52.0,-242.0,-17.0,78.0,47.0
-132.0,-7.0,72.0,77.0,-267.0,16.0,28.0,26.0
-74.0,-1.0,-7.0,90.0,-239.0,6.0,4.0,22.0
-66.0,-58.0,-269.0,19.0,-242.0,-4.0,-33.0,44.0
-70.0,-131.0,-290.0,-26.0,-177.0,16.0,-65.0,38.0
-128.0,-77.0,-438.0,-91.0,-150.0,-7.0,-90.0,67.0
15.0,-28.0,-281.0,-107.0,-120.0,0.0,-119.0,65.0
212.0,-3.0,-20.0,-74.0,-49.0,6.0,-133.0,117.0
228.0,7.0,189.0,-62.0,-18.0,11.0,-149.0,373.0
328.0,0.0,430.0,-30.0,83.0,37.0,-155.0,555.0
367.0,22.0,301.0,-22.0,201.0,40.0,-137.0,413.0
300.0,7.0,268.0,20.0,282.0,38.0,-149.0,243.0
281.0,21.0,480.0,54.0,334.0,69.0,-172.0,100.0
215.0,41.0,354.0,10.0,361.0,68.0,-142.0,-177.0
277.0,4.0,455.0,-10.0,367.0,69.0,-137.0,-262.0
255.0,14.0,923.0,-29.0,399.0,70.0,-158.0,-390.0
227.0,26.0,207.0,-2.0,406.0,53.0,-162.0,-627.0
203.0,50.0,-774.0,16.0,431.0,79.0,-155.0,-55.0
188.0,31.0,-1149.0,-21.0,415.0,96.0,-180.0,369.0
172.0,18.0,-912.0,-22.0,366.0,85.0,-182.0,-3.0
113.0,63.0,-156.0,-64.0,358.0,57.0,-152.0,-5.0
147.0,53.0,142.0,-79.0,318.0,44.0,-162.0,-169.0
127.0,46.0,497.0,-66.0,318.0,54.0,-182.0,-606.0
110.0,28.0,1224.0,-59.0,314.0,54.0,-175.0,-809.0
98.0,-7.0,1237.0,-71.0,340.0,37.0,-163.0,-177.0
58.0,-57.0,-21.0,-37.0,379.0,61.0,-162.0,203.0
11.0,-36.0,-532.0,-24.0,379.0,73.0,-161.0,25.0
1.0,-16.0,-242.0,-72.0,403.0,71.0,-146.0,230.0
-39.0,2.0,923.0,-78.0,415.0,103.0,-127.0,86.0
-87.0,0.0,1900.0,-93.0,413.0,79.0,-131.0,196.0
-69.0,0.0,976.0,-52.0,402.0,69.0,-104.0,163.0
-77.0,26.0,556.0,-21.0,438.0,62.0,-91.0,106.0
-67.0,20.0,202.0,6.0,474.0,38.0,-117.0,194.0
-85.0,-10.0,-232.0,3.0,491.0,4.0,-110.0,137.0
-88.0,-43.0,-105.0,-1.0,497.0,54.0,-89.0,204.0
-84.0,-19.0,-696.0,-44.0,509.0,107.0,-90.0,156.0
-103.0,-23.0,-1813.0,-70.0,503.0,119.0,-82.0,207.0
-64.0,-15.0,-2489.0,31.0,509.0,178.0,-87.0,164.0
-62.0,-4.0,-2692.0,23.0,553.0,122.0,-88.0,168.0
-104.0,18.0,-1732.0,30.0,519.0,107.0,-78.0,146.0
-126.0,51.0,30.0,67.0,505.0,67.0,-69.0,148.0
-113.0,28.0,1068.0,66.0,503.0,27.0,-8.0,167.0
-136.0,31.0,931.0,96.0,455.0,78.0,24.0,122.0
-124.0,36.0,139.0,99.0,428.0,49.0,18.0,108.0
-102.0,14.0,-245.0,81.0,383.0,44.0,23.0,74.0
-144.0,-6.0,-1101.0,40.0,355.0,48.0,23.0,106.0
-171.0,-24.0,-1268.0,-17.0,318.0,36.0,42.0,43.0
-142.0,-46.0,-401.0,-23.0,253.0,39.0,38.0,9.0
-97.0,-47.0,-108.0,-61.0,194.0,41.0,28.0,17.0
-131.0,-20.0,20.0,-128.0,179.0,62.0,35.0,72.0
-109.0,-21.0,225.0,-123.0,166.0,29.0,39.0,160.0
-100.0,-24.0,1106.0,-46.0,130.0,1.0,40.0,116.0
-162.0,14.0,2005.0,-6.0,135.0,-26.0,36.0,20.0
-144.0,5.0,1241.0,-23.0,106.0,-91.0,43.0,3.0
-83.0,-4.0,-9.0,-20.0,76.0,-98.0,64.0,-21.0
-75.0,5.0,-932.0,2.0,43.0,-55.0,61.0,-99.0
-83.0,13.0,-1414.0,44.0,12.0,-86.0,73.0,-149.0
-41.0,4.0,-564.0,11.0,-9.0,1.0,103.0,-188.0
-52.0,21.0,598.0,-8.0,-70.0,57.0,89.0,-47.0
-89.0,46.0,657.0,-41.0,-110.0,-25.0,58.0,40.0
-67.0,18.0,7.0,-87.0,-122.0,-30.0,71.0,15.0
-64.0,8.0,415.0,-26.0,-105.0,-56.0,98.0,86.0
-56.0,10.0,1110.0,16.0,-102.0,-29.0,59.0,75.0
-32.0,18.0,2345.0,35.0,-148.0,-53.0,70.0,80.0
-13.0,54.0,3369.0,-32.0,-187.0,-35.0,78.0,49.0
27.0,21.0,1900.0,-6.0,-170.0,-10.0,76.0,53.0
37.0,-57.0,-55.0,127.0,-191.0,-20.0,110.0,117.0
-19.0,-55.0,-2238.0,113.0,-196.0,-25.0,105.0,76.0
-82.0,-72.0,-3030.0,6.0,-160.0,-69.0,102.0,65.0
-42.0,-106.0,-1419.0,-112.0,-200.0,-36.0,88.0,61.0
55.0,-52.0,-738.0,-125.0,-205.0,-66.0,59.0,54.0
49.0,-33.0,-976.0,-119.0,-195.0,-69.0,54.0,32.0
52.0,-1.0,-841.0,-66.0,-203.0,-11.0,38.0,19.0
74.0,-3.0,-192.0,2.0,-175.0,-23.0,35.0,10.0
46.0,-3.0,781.0,-16.0,-179.0,-48.0,13.0,17.0
-30.0,60.0,2395.0,-25.0,-157.0,-36.0,31.0,20.0
-62.0,70.0,3007.0,-54.0,-108.0,-3.0,47.0,2.0
-51.0,87.0,1249.0,-19.0,-130.0,14.0,22.0,12.0
-35.0,37.0,-841.0,-60.0,-182.0,5.0,17.0,14.0
-12.0,-47.0,-2782.0,-92.0,-223.0,18.0,2.0,-16.0
-29.0,-53.0,-3343.0,-53.0,-260.0,84.0,-7.0,-35.0
4.0,69.0,-2692.0,-38.0,-283.0,89.0,-10.0,-18.0
6.0,79.0,-2306.0,22.0,-307.0,67.0,2.0,-29.0
-12.0,-12.0,-1297.0,40.0,-314.0,43.0,-21.0,-42.0
-4.0,-38.0,370.0,6.0,-319.0,36.0,-15.0,-39.0
-58.0,-72.0,976.0,-16.0,-356.0,1.0,1.0,-25.0
-125.0,-104.0,244.0,75.0,-383.0,-106.0,-16.0,-22.0
-143.0,-83.0,385.0,163.0,-460.0,-68.0,-15.0,-59.0
-93.0,22.0,636.0,150.0,-476.0,42.0,-10.0,-79.0
-39.0,40.0,621.0,55.0,-437.0,-14.0,-12.0,-70.0
-3.0,57.0,1106.0,8.0,-410.0,16.0,5.0,-81.0
-25.0,73.0,1560.0,-55.0,-421.0,45.0,2.0,-84.0
-50.0,108.0,2224.0,-104.0,-437.0,14.0,-14.0,-67.0
-63.0,193.0,2681.0,-107.0,-437.0,31.0,-19.0,-17.0
-79.0,160.0,1174.0,-92.0,-436.0,73.0,-24.0,12.0
-86.0,157.0,-1062.0,-12.0,-389.0,133.0,1.0,-23.0
-91.0,170.0,-1470.0,-4.0,-349.0,80.0,8.0,-7.0
-52.0,103.0,-1479.0,-59.0,-295.0,68.0,17.0,1.0
-40.0,21.0,-1264.0,-102.0,-263.0,71.0,13.0,199.0
-74.0,-28.0,91.0,-65.0,-240.0,29.0,16.0,563.0
-108.0,-98.0,2395.0,-84.0,-245.0,-56.0,51.0,547.0
-118.0,-158.0,3251.0,-41.0,-217.0,-28.0,84.0,369.0
-140.0,-188.0,1249.0,-14.0,-174.0,95.0,95.0,273.0
-117.0,-286.0,-1882.0,-30.0,-140.0,48.0,87.0,-20.0
-94.0,-314.0,-3730.0,-8.0,-93.0,42.0,81.0,-305.0
-141.0,-113.0,-3080.0,13.0,-67.0,93.0,88.0,-730.0
-96.0,60.0,-2009.0,90.0,-101.0,88.0,98.0,-1325.0
-81.0,31.0,-761.0,26.0,-122.0,124.0,90.0,-1065.0
-63.0,43.0,-181.0,-28.0,-99.0,124.0,90.0,-156.0
-41.0,-11.0,263.0,8.0,-117.0,86.0,95.0,103.0
-62.0,-18.0,498.0,28.0,-139.0,98.0,85.0,69.0
-61.0,-30.0,272.0,32.0,-157.0,135.0,89.0,200.0
-97.0,-67.0,573.0,39.0,-136.0,147.0,102.0,137.0
-75.0,36.0,741.0,18.0,-77.0,163.0,98.0,169.0
-64.0,53.0,931.0,-6.0,-63.0,152.0,88.0,163.0
-50.0,34.0,828.0,-14.0,-38.0,130.0,97.0,161.0
-45.0,-53.0,793.0,-55.0,-48.0,49.0,58.0,165.0
-70.0,-78.0,807.0,-29.0,-82.0,40.0,59.0,162.0
-53.0,26.0,592.0,-54.0,-126.0,94.0,81.0,161.0
-63.0,60.0,410.0,-90.0,-177.0,83.0,60.0,117.0
-50.0,64.0,200.0,-82.0,-177.0,79.0,54.0,133.0
-76.0,87.0,321.0,-47.0,-179.0,88.0,67.0,106.0
-64.0,70.0,428.0,32.0,-118.0,73.0,85.0,108.0
-33.0,37.0,171.0,26.0,-72.0,78.0,53.0,108.0
0.0,52.0,244.0,7.0,-43.0,74.0,51.0,121.0
41.0,23.0,638.0,3.0,-5.0,69.0,47.0,108.0
43.0,10.0,793.0,9.0,10.0,73.0,44.0,132.0
-18.0,4.0,931.0,-47.0,46.0,53.0,39.0,124.0
-67.0,14.0,152.0,-60.0,67.0,35.0,33.0,63.0
-41.0,25.0,-867.0,-30.0,49.0,48.0,32.0,61.0
-56.0,22.0,-1345.0,-57.0,45.0,54.0,13.0,61.0
-80.0,16.0,-1229.0,-53.0,61.0,31.0,10.0,120.0
-92.0,7.0,-405.0,-54.0,65.0,28.0,-11.0,155.0
-83.0,-8.0,-153.0,-75.0,44.0,28.0,-4.0,258.0
-50.0,-20.0,-393.0,-29.0,55.0,45.0,-19.0,228.0
-36.0,44.0,-672.0,22.0,70.0,45.0,-32.0,27.0
17.0,58.0,-194.0,31.0,88.0,50.0,-14.0,-116.0
406.0,43.0,813.0,81.0,104.0,47.0,-9.0,-232.0
1051.0,9.0,1639.0,31.0,131.0,29.0,-28.0,-338.0
1169.0,-18.0,1908.0,2.0,153.0,20.0,-40.0,-514.0
961.0,-18.0,1087.0,60.0,142.0,-10.0,16.0,-248.0
965.0,-31.0,-186.0,3.0,167.0,2.0,13.0,91.0
660.0,-83.0,-1007.0,-13.0,180.0,-17.0,14.0,-13.0
273.0,-107.0,-1138.0,-47.0,184.0,-28.0,15.0,50.0
-120.0,-43.0,-886.0,-102.0,187.0,5.0,-8.0,29.0
-670.0,-1.0,-1106.0,-74.0,215.0,-15.0,-21.0,47.0
-896.0,26.0,-1678.0,-41.0,224.0,-22.0,-20.0,98.0
-1170.0,21.0,-1517.0,-40.0,212.0,-7.0,-14.0,67.0
-1296.0,16.0,-1028.0,-36.0,229.0,5.0,-14.0,106.0
-1016.0,44.0,-716.0,36.0,247.0,-20.0,-14.0,59.0
-836.0,57.0,-674.0,2.0,247.0,-25.0,-44.0,64.0
-306.0,81.0,-454.0,-16.0,275.0,-24.0,-26.0,43.0
186.0,114.0,196.0,28.0,314.0,-15.0,-12.0,68.0
406.0,55.0,425.0,-13.0,351.0,6.0,-17.0,47.0
834.0,38.0,801.0,37.0,355.0,37.0,-22.0,19.0
1515.0,45.0,1119.0,38.0,363.0,81.0,-8.0,64.0
1293.0,21.0,402.0,12.0,367.0,73.0,5.0,58.0
-448.0,-28.0,-251.0,22.0,385.0,68.0,-6.0,63.0
-844.0,-78.0,-405.0,9.0,438.0,-2.0,4.0,141.0
-746.0,-64.0,-328.0,4.0,402.0,-34.0,2.0,151.0
-779.0,-48.0,28.0,-30.0,399.0,-43.0,7.0,104.0
-258.0,-9.0,263.0,-17.0,415.0,-50.0,-3.0,83.0
-206.0,-26.0,396.0,2.0,431.0,-58.0,-3.0,62.0
33.0,-30.0,288.0,-40.0,424.0,-89.0,2.0,74.0
277.0,31.0,244.0,-49.0,408.0,-18.0,-11.0,39.0
39.0,95.0,238.0,-9.0,440.0,-6.0,-7.0,10.0
-75.0,99.0,186.0,-22.0,444.0,2.0,25.0,-13.0
333.0,44.0,371.0,-72.0,466.0,27.0,31.0,-3.0
624.0,-3.0,560.0,-86.0,458.0,30.0,23.0,45.0
621.0,-64.0,559.0,-62.0,468.0,19.0,41.0,33.0
570.0,-75.0,431.0,3.0,468.0,57.0,42.0,26.0
556.0,-27.0,266.0,16.0,413.0,44.0,37.0,43.0
275.0,-12.0,189.0,-38.0,375.0,9.0,45.0,79.0
44.0,-18.0,246.0,-42.0,348.0,9.0,49.0,64.0
692.0,-21.0,166.0,-39.0,342.0,5.0,60.0,5.0
1376.0,9.0,147.0,-63.0,285.0,42.0,67.0,11.0
580.0,79.0,105.0,-34.0,244.0,6.0,28.0,18.0
-443.0,58.0,-87.0,-50.0,196.0,31.0,24.0,29.0
-1081.0,11.0,-147.0,-53.0,125.0,29.0,41.0,25.0
-1456.0,2.0,-110.0,-17.0,106.0,2.0,36.0,23.0
-1072.0,-41.0,-168.0,-25.0,81.0,-8.0,37.0,18.0
-445.0,-23.0,-190.0,-8.0,85.0,-36.0,16.0,1.0
157.0,30.0,-79.0,-5.0,43.0,2.0,12.0,-11.0
296.0,-22.0,-86.0,-9.0,4.0,-40.0,22.0,-22.0
563.0,-70.0,-55.0,16.0,12.0,-37.0,30.0,-9.0
245.0,-85.0,-62.0,44.0,50.0,43.0,17.0,-10.0
-92.0,-103.0,-242.0,22.0,90.0,106.0,25.0,-26.0
-6.0,-48.0,-193.0,8.0,58.0,83.0,21.0,-29.0
35.0,15.0,-36.0,55.0,49.0,7.0,0.0,-29.0
322.0,33.0,-75.0,33.0,68.0,-2.0,17.0,-22.0
733.0,52.0,-64.0,-9.0,22.0,-11.0,37.0,-3.0
1038.0,25.0,-42.0,-20.0,-2.0,-10.0,39.0,-11.0
782.0,1.0,-59.0,-38.0,19.0,-7.0,50.0,-14.0
583.0,-3.0,-14.0,-71.0,41.0,10.0,38.0,53.0
133.0,1.0,-52.0,-65.0,-1.0,9.0,33.0,13.0
127.0,57.0,-62.0,-67.0,-1.0,20.0,44.0,-27.0
522.0,91.0,-56.0,-48.0,-8.0,26.0,26.0,2.0
538.0,37.0,-40.0,-42.0,-67.0,-8.0,36.0,53.0
543.0,27.0,-36.0,-75.0,-43.0,-37.0,31.0,106.0
603.0,30.0,-49.0,-78.0,-86.0,-55.0,27.0,76.0
238.0,1.0,1.0,-100.0,-120.0,-37.0,50.0,85.0
-444.0,-32.0,3.0,-34.0,-117.0,13.0,59.0,66.0
-883.0,-110.0,-11.0,32.0,-120.0,37.0,58.0,-17.0
-712.0,-128.0,-45.0,50.0,-82.0,-4.0,54.0,-81.0
-25.0,-62.0,-23.0,59.0,-99.0,15.0,62.0,-62.0
-493.0,-4.0,-31.0,30.0,-129.0,13.0,73.0,-31.0
-816.0,-31.0,-34.0,53.0,-158.0,0.0,59.0,92.0
-314.0,28.0,1.0,34.0,-204.0,-6.0,40.0,322.0
-523.0,63.0,-26.0,3.0,-220.0,-18.0,38.0,369.0
-1039.0,10.0,-3.0,-3.0,-227.0,-20.0,26.0,340.0
-1149.0,99.0,-20.0,-32.0,-236.0,9.0,3.0,100.0
-1170.0,122.0,-26.0,-9.0,-238.0,17.0,24.0,-9.0
-649.0,99.0,-9.0,30.0,-228.0,-25.0,14.0,-90.0
789.0,-8.0,113.0,4.0,-196.0,-16.0,12.0,-508.0
3326.0,-132.0,686.0,-44.0,-170.0,10.0,18.0,-687.0
4000.0,-127.0,1508.0,-71.0,-140.0,27.0,4.0,-446.0
4000.0,-70.0,1479.0,-50.0,-92.0,19.0,8.0,-129.0
3508.0,4.0,490.0,-13.0,-66.0,39.0,40.0,60.0
973.0,-30.0,-255.0,-34.0,-50.0,81.0,85.0,286.0
-2155.0,-17.0,-951.0,-71.0,-35.0,77.0,113.0,162.0
-2611.0,73.0,-1813.0,-62.0,-47.0,72.0,127.0,165.0
-2749.0,84.0,-2057.0,-38.0,-63.0,93.0,133.0,112.0
-2493.0,6.0,-2039.0,-28.0,-122.0,59.0,154.0,-43.0
-2826.0,-85.0,-1700.0,-16.0,-147.0,-35.0,135.0,-111.0
-2126.0,-75.0,-1106.0,23.0,-175.0,-94.0,90.0,-385.0
-1827.0,-13.0,-572.0,98.0,-189.0,-25.0,71.0,-274.0
-2244.0,43.0,89.0,189.0,-170.0,10.0,48.0,79.0
-2708.0,94.0,280.0,155.0,-201.0,8.0,56.0,43.0
-2761.0,168.0,228.0,39.0,-228.0,5.0,94.0,15.0
-2256.0,222.0,124.0,-17.0,-240.0,-13.0,100.0,74.0
-2322.0,190.0,337.0,-13.0,-227.0,51.0,83.0,-7.0
-1296.0,187.0,446.0,-9.0,-262.0,-24.0,89.0,26.0
-844.0,201.0,336.0,-13.0,-309.0,-19.0,90.0,-31.0
60.0,187.0,410.0,-40.0,-323.0,51.0,63.0,-2.0
660.0,140.0,306.0,-46.0,-315.0,42.0,53.0,-24.0
1175.0,29.0,307.0,-28.0,-281.0,53.0,42.0,-30.0
2052.0,-88.0,252.0,-12.0,-256.0,4.0,30.0,-9.0
2258.0,-100.0,345.0,-3.0,-227.0,5.0,40.0,-47.0
2545.0,-98.0,467.0,-24.0,-213.0,-16.0,71.0,-34.0
2274.0,-73.0,526.0,-7.0,-212.0,30.0,88.0,-72.0
2157.0,-82.0,695.0,8.0,-179.0,68.0,109.0,-49.0
3562.0,-134.0,455.0,-10.0,-158.0,32.0,141.0,-60.0
4000.0,-181.0,-187.0,30.0,-147.0,48.0,141.0,-58.0
2327.0,-210.0,-438.0,15.0,-142.0,5.0,155.0,-69.0
-620.0,-128.0,-438.0,-45.0,-118.0,24.0,136.0,-82.0
-1986.0,-118.0,-310.0,-73.0,-92.0,24.0,79.0,-43.0
-3410.0,-156.0,-20.0,-51.0,-130.0,37.0,46.0,-42.0
-2826.0,-150.0,532.0,-44.0,-118.0,63.0,-13.0,-40.0
-2148.0,-137.0,1119.0,-74.0,-95.0,64.0,-26.0,-22.0
-1096.0,-46.0,567.0,-66.0,-73.0,87.0,1.0,-59.0
33.0,245.0,-252.0,-95.0,-38.0,70.0,2.0,-52.0
234.0,477.0,-580.0,-80.0,2.0,69.0,-35.0,-48.0
-262.0,321.0,-298.0,-54.0,4.0,17.0,-30.0,-45.0
106.0,167.0,96.0,-32.0,19.0,36.0,-43.0,76.0
250.0,150.0,106.0,8.0,39.0,44.0,-56.0,189.0
45.0,111.0,250.0,-2.0,7.0,20.0,-85.0,176.0
784.0,7.0,280.0,-16.0,-42.0,50.0,-141.0,142.0
905.0,-102.0,364.0,-2.0,-78.0,32.0,-139.0,156.0
929.0,-112.0,213.0,45.0,-85.0,31.0,-161.0,58.0
908.0,-111.0,179.0,2.0,-118.0,32.0,-163.0,-17.0
1000.0,-39.0,356.0,-14.0,-103.0,44.0,-163.0,-156.0
1065.0,-35.0,313.0,-25.0,-80.0,35.0,-159.0,-406.0
758.0,-102.0,129.0,-40.0,-63.0,-3.0,-158.0,-196.0
654.0,-70.0,-250.0,-2.0,-68.0,-6.0,-176.0,82.0
1300.0,-48.0,-336.0,-65.0,-123.0,-16.0,-172.0,-70.0
1625.0,-71.0,-328.0,-67.0,-110.0,5.0,-190.0,-67.0
689.0,-86.0,-198.0,-1.0,-114.0,50.0,-182.0,-85.0
-12.0,-70.0,-38.0,19.0,-103.0,97.0,-210.0,-201.0
-510.0,-38.0,-75.0,0.0,-99.0,109.0,-192.0,-154.0
-741.0,-42.0,523.0,15.0,-141.0,111.0,-182.0,17.0
129.0,-41.0,1544.0,39.0,-153.0,119.0,-186.0,165.0
-218.0,-22.0,911.0,36.0,-157.0,66.0,-159.0,117.0
-1000.0,-42.0,-585.0,20.0,-111.0,50.0,-195.0,170.0
-802.0,-27.0,-1004.0,-25.0,-78.0,24.0,-163.0,174.0
-1045.0,24.0,-963.0,-25.0,-47.0,-54.0,-154.0,156.0
-615.0,115.0,-346.0,-57.0,-23.0,-59.0,-150.0,111.0
-88.0,132.0,-277.0,-53.0,33.0,-91.0,-120.0,26.0
-361.0,99.0,-65.0,-48.0,108.0,-159.0,-125.0,7.0
-714.0,62.0,437.0,-44.0,196.0,-80.0,-114.0,15.0
-828.0,-35.0,110.0,10.0,296.0,97.0,-102.0,74.0
-880.0,-38.0,-152.0,31.0,374.0,95.0,-86.0,142.0
-1083.0,-40.0,-251.0,20.0,432.0,58.0,-64.0,239.0
-886.0,-12.0,-137.0,-33.0,444.0,73.0,-73.0,128.0
-331.0,40.0,-129.0,4.0,497.0,67.0,-63.0,-39.0
137.0,38.0,-255.0,-26.0,519.0,58.0,-39.0,38.0
184.0,-3.0,-343.0,-32.0,570.0,50.0,-32.0,79.0
209.0,-37.0,-328.0,-9.0,621.0,20.0,-11.0,163.0
473.0,10.0,-434.0,-10.0,575.0,28.0,18.0,419.0
281.0,51.0,-414.0,44.0,618.0,61.0,38.0,499.0
70.0,28.0,-224.0,-5.0,606.0,53.0,66.0,385.0
30.0,1.0,278.0,15.0,575.0,76.0,97.0,295.0
-192.0,1.0,1249.0,30.0,570.0,56.0,116.0,124.0
-314.0,10.0,1936.0,7.0,484.0,68.0,145.0,-71.0
-433.0,50.0,1184.0,10.0,406.0,45.0,172.0,-275.0
-196.0,73.0,-380.0,-20.0,318.0,14.0,188.0,-687.0
-195.0,46.0,-1214.0,-42.0,265.0,27.0,205.0,-638.0
-374.0,22.0,-1227.0,-55.0,203.0,5.0,223.0,-63.0
-132.0,-4.0,-876.0,-55.0,119.0,12.0,248.0,49.0
-60.0,-15.0,-743.0,-68.0,133.0,-33.0,242.0,71.0
29.0,-28.0,-473.0,-104.0,97.0,-6.0,238.0,167.0
137.0,-18.0,4.0,-72.0,58.0,28.0,233.0,84.0
93.0,8.0,455.0,-29.0,54.0,2.0,225.0,124.0
146.0,-16.0,956.0,-27.0,4.0,19.0,227.0,74.0
192.0,-12.0,1704.0,-34.0,21.0,-17.0,209.0,82.0
263.0,-5.0,2548.0,-48.0,-8.0,-29.0,256.0,102.0
243.0,-5.0,1549.0,-65.0,-28.0,-19.0,294.0,76.0
199.0,8.0,-562.0,-91.0,-29.0,-22.0,326.0,77.0
204.0,26.0,-1732.0,-92.0,-59.0,-27.0,376.0,69.0
163.0,25.0,-1992.0,-65.0,-34.0,-8.0,391.0,75.0
125.0,11.0,-1321.0,-41.0,-38.0,-19.0,391.0,40.0
56.0,-4.0,-877.0,-79.0,-45.0,-29.0,384.0,33.0
24.0,-35.0,-624.0,-87.0,-33.0,-19.0,346.0,5.0
18.0,-37.0,337.0,-60.0,-16.0,-51.0,282.0,10.0
1.0,3.0,1432.0,-36.0,-28.0,-41.0,246.0,17.0
-44.0,-2.0,1249.0,-21.0,-42.0,-36.0,210.0,19.0
-47.0,-3.0,251.0,-9.0,-21.0,-30.0,197.0,23.0
-18.0,-23.0,65.0,19.0,-9.0,-45.0,183.0,13.0
-39.0,-15.0,-194.0,23.0,-21.0,-20.0,194.0,22.0
-29.0,17.0,-405.0,24.0,-6.0,4.0,175.0,50.0
-35.0,-7.0,-324.0,28.0,-15.0,-12.0,152.0,66.0
-30.0,8.0,402.0,44.0,-5.0,19.0,126.0,86.0
10.0,-11.0,1184.0,84.0,1.0,34.0,77.0,82.0
23.0,-41.0,492.0,81.0,-55.0,29.0,76.0,71.0
40.0,-21.0,-637.0,73.0,-34.0,37.0,20.0,100.0
39.0,14.0,-1362.0,54.0,-23.0,33.0,-15.0,64.0
46.0,5.0,-1400.0,26.0,-29.0,-14.0,-32.0,59.0
69.0,12.0,-1041.0,-2.0,-34.0,7.0,-41.0,76.0
42.0,63.0,-825.0,22.0,-20.0,38.0,-48.0,53.0
32.0,43.0,-709.0,37.0,-2.0,81.0,-68.0,54.0
42.0,23.0,-541.0,39.0,18.0,110.0,-39.0,37.0
52.0,40.0,9.0,88.0,60.0,175.0,-41.0,39.0
92.0,46.0,140.0,108.0,85.0,213.0,-68.0,29.0
71.0,23.0,559.0,54.0,122.0,98.0,-109.0,10.0
60.0,36.0,1192.0,12.0,140.0,54.0,-121.0,-6.0
76.0,60.0,576.0,-45.0,151.0,29.0,-143.0,-31.0
86.0,22.0,27.0,-111.0,171.0,1.0,-169.0,-29.0
100.0,35.0,207.0,-113.0,188.0,-78.0,-175.0,-7.0
77.0,34.0,958.0,-83.0,195.0,-55.0,-167.0,-34.0
78.0,24.0,1322.0,-8.0,226.0,54.0,-154.0,-39.0
90.0,34.0,1119.0,0.0,190.0,27.0,-159.0,-51.0
80.0,9.0,964.0,-20.0,193.0,24.0,-141.0,-18.0
77.0,28.0,852.0,-6.0,206.0,33.0,-113.0,108.0
127.0,7.0,1158.0,-13.0,143.0,50.0,-88.0,286.0
112.0,-14.0,736.0,2.0,148.0,50.0,-98.0,467.0
117.0,-20.0,-438.0,-2.0,130.0,-16.0,-75.0,384.0
110.0,-49.0,-1498.0,-52.0,71.0,2.0,-66.0,308.0
47.0,2.0,-2150.0,-101.0,43.0,-27.0,-86.0,312.0
45.0,-7.0,-2189.0,-94.0,-3.0,-23.0,-68.0,161.0
42.0,-21.0,-1297.0,-59.0,-40.0,56.0,-53.0,-156.0
10.0,-43.0,-178.0,-54.0,-71.0,4.0,-59.0,-711.0
-37.0,-44.0,-63.0,-6.0,-80.0,4.0,-37.0,-918.0
-23.0,-3.0,-727.0,43.0,-78.0,30.0,-18.0,-622.0
15.0,-51.0,-847.0,97.0,-87.0,31.0,-20.0,-467.0
64.0,-60.0,-827.0,116.0,-98.0,57.0,-10.0,-398.0
50.0,-52.0,-288.0,107.0,-77.0,21.0,-19.0,5.0
-36.0,-35.0,589.0,69.0,-77.0,39.0,-1.0,269.0
-70.0,-43.0,1228.0,-5.0,-59.0,123.0,3.0,213.0
-81.0,-62.0,1639.0,-91.0,-45.0,166.0,-10.0,326.0
-10.0,3.0,1033.0,-145.0,-55.0,153.0,28.0,314.0
49.0,20.0,728.0,-110.0,-61.0,95.0,15.0,200.0
63.0,33.0,122.0,-82.0,-65.0,98.0,42.0,66.0
90.0,13.0,-617.0,-1.0,-43.0,82.0,76.0,-22.0
66.0,0.0,-955.0,-47.0,-36.0,64.0,91.0,-52.0
1.0,17.0,-1419.0,-68.0,-43.0,109.0,49.0,-8.0
-108.0,4.0,-549.0,-22.0,-43.0,89.0,34.0,39.0
-125.0,40.0,923.0,28.0,-31.0,67.0,34.0,-64.0
-106.0,41.0,1544.0,40.0,-22.0,38.0,-26.0,59.0
-100.0,42.0,1249.0,22.0,-23.0,47.0,-19.0,163.0
-114.0,60.0,1302.0,45.0,1.0,56.0,-50.0,170.0
-128.0,59.0,589.0,-42.0,31.0,25.0,-60.0,145.0
-124.0,84.0,606.0,-47.0,43.0,22.0,-38.0,127.0
-188.0,58.0,1047.0,-56.0,15.0,37.0,-46.0,159.0
-219.0,23.0,1432.0,-36.0,16.0,43.0,-46.0,117.0
-228.0,23.0,2018.0,-46.0,-4.0,34.0,-59.0,119.0
-277.0,26.0,760.0,-165.0,-23.0,18.0,-61.0,78.0
-307.0,11.0,-1427.0,-172.0,-9.0,-10.0,-48.0,74.0
-274.0,24.0,-2964.0,-139.0,-45.0,-14.0,-23.0,66.0
-258.0,-12.0,-2241.0,-110.0,-67.0,-32.0,-14.0,74.0
-250.0,-169.0,-469.0,-8.0,-74.0,-13.0,-25.0,74.0
-195.0,-174.0,1965.0,96.0,-69.0,8.0,3.0,49.0
-175.0,-81.0,343.0,60.0,-80.0,-2.0,41.0,80.0
-188.0,-99.0,-3176.0,16.0,-135.0,-6.0,62.0,71.0
-207.0,-57.0,-4000.0,92.0,-151.0,-11.0,48.0,50.0
-225.0,-1.0,-3225.0,103.0,-156.0,-4.0,50.0,40.0
-188.0,8.0,-763.0,77.0,-162.0,-25.0,39.0,36.0
-132.0,-24.0,-847.0,114.0,-197.0,-25.0,3.0,38.0
-122.0,-50.0,-306.0,56.0,-205.0,-3.0,45.0,36.0
-116.0,4.0,-92.0,41.0,-174.0,23.0,30.0,30.0
-106.0,18.0,-193.0,27.0,-147.0,26.0,10.0,29.0
-95.0,-32.0,59.0,13.0,-135.0,16.0,19.0,47.0
-151.0,19.0,-480.0,73.0,-134.0,33.0,25.0,53.0
-188.0,95.0,-380.0,-21.0,-99.0,30.0,21.0,23.0
-140.0,51.0,-104.0,-56.0,-53.0,2.0,20.0,44.0
-128.0,25.0,830.0,12.0,-21.0,-13.0,61.0,17.0
-68.0,45.0,801.0,11.0,4.0,29.0,56.0,23.0
24.0,82.0,1237.0,-37.0,-17.0,38.0,62.0,40.0
60.0,101.0,2212.0,-50.0,-28.0,41.0,76.0,3.0
89.0,135.0,2343.0,-62.0,-26.0,22.0,56.0,1.0
98.0,134.0,1561.0,-62.0,-36.0,-23.0,46.0,-17.0
134.0,92.0,1119.0,-44.0,-34.0,-24.0,52.0,-26.0
149.0,44.0,2094.0,-72.0,-43.0,-4.0,51.0,-8.0
147.0,12.0,2277.0,-72.0,-47.0,-23.0,54.0,-3.0
147.0,-38.0,719.0,-37.0,-37.0,-6.0,35.0,-35.0
136.0,-69.0,-236.0,51.0,-45.0,-1.0,-8.0,-34.0
109.0,-79.0,-340.0,-26.0,-37.0,-31.0,-4.0,-31.0
74.0,-86.0,-7.0,-87.0,-34.0,35.0,0.0,-30.0
38.0,-49.0,402.0,-97.0,-50.0,40.0,1.0,-30.0
18.0,-72.0,-125.0,-184.0,-27.0,-10.0,-6.0,-36.0
39.0,-44.0,476.0,-195.0,-40.0,-72.0,2.0,-37.0
21.0,-4.0,398.0,-162.0,-49.0,-81.0,21.0,-79.0
3.0,24.0,541.0,-73.0,-67.0,5.0,9.0,-75.0
12.0,28.0,33.0,-54.0,-105.0,33.0,25.0,-56.0
-9.0,-14.0,-2899.0,-34.0,-116.0,23.0,9.0,-70.0
-49.0,8.0,-3042.0,18.0,-110.0,76.0,1.0,-90.0
-52.0,1.0,-1655.0,-9.0,-102.0,90.0,26.0,-80.0
-34.0,2.0,1597.0,2.0,-64.0,76.0,2.0,-93.0
-50.0,13.0,3702.0,109.0,-50.0,77.0,20.0,-79.0
-50.0,-26.0,1375.0,191.0,-66.0,21.0,13.0,-52.0
-34.0,-46.0,-1069.0,171.0,-75.0,-17.0,2.0,-52.0
-66.0,11.0,-3718.0,13.0,-89.0,-23.0,36.0,-44.0
-43.0,73.0,-3847.0,-79.0,-54.0,-1.0,29.0,-71.0
-23.0,99.0,-2438.0,-50.0,-52.0,57.0,56.0,-48.0
-63.0,95.0,-1732.0,-54.0,-43.0,53.0,79.0,-55.0
-18.0,93.0,-709.0,38.0,-7.0,138.0,73.0,-79.0
-13.0,77.0,-613.0,73.0,30.0,206.0,66.0,-55.0
-32.0,52.0,-313.0,48.0,69.0,107.0,65.0,-35.0
-19.0,29.0,-519.0,109.0,65.0,61.0,70.0,-24.0
-20.0,-53.0,-99.0,40.0,89.0,92.0,70.0,-17.0
-50.0,-96.0,872.0,-42.0,92.0,105.0,83.0,-22.0
-51.0,-82.0,958.0,-40.0,71.0,79.0,49.0,-15.0
0.0,-165.0,1497.0,-37.0,83.0,44.0,32.0,27.0
48.0,-236.0,1562.0,-6.0,87.0,57.0,80.0,12.0
-11.0,-65.0,1314.0,-40.0,83.0,58.0,61.0,24.0
-116.0,53.0,1029.0,-87.0,110.0,38.0,44.0,46.0
199.0,-18.0,781.0,-92.0,137.0,61.0,67.0,52.0
986.0,13.0,1119.0,-49.0,92.0,41.0,54.0,45.0
1045.0,15.0,1033.0,-32.0,70.0,17.0,58.0,41.0
436.0,32.0,364.0,-59.0,70.0,69.0,46.0,71.0
315.0,20.0,-74.0,-43.0,62.0,93.0,53.0,82.0
-152.0,-4.0,-132.0,-57.0,67.0,110.0,61.0,71.0
-886.0,21.0,288.0,-45.0,90.0,89.0,46.0,51.0
-1218.0,-5.0,573.0,-33.0,100.0,58.0,81.0,76.0
-1343.0,12.0,402.0,1.0,66.0,47.0,67.0,44.0
-1105.0,-13.0,70.0,-10.0,64.0,-25.0,67.0,46.0
-691.0,-26.0,-741.0,-10.0,86.0,-24.0,56.0,42.0
-101.0,12.0,-937.0,-16.0,89.0,39.0,-2.0,14.0
358.0,31.0,-698.0,-53.0,113.0,42.0,-4.0,19.0
954.0,40.0,-348.0,-34.0,140.0,40.0,7.0,8.0
477.0,72.0,43.0,-40.0,154.0,37.0,-4.0,31.0
-816.0,47.0,345.0,-28.0,178.0,39.0,0.0,14.0
-966.0,16.0,878.0,-50.0,179.0,-22.0,-8.0,29.0
-1007.0,36.0,736.0,-19.0,182.0,-75.0,4.0,17.0
-895.0,38.0,231.0,25.0,171.0,14.0,2.0,27.0
-443.0,9.0,72.0,1.0,151.0,63.0,-3.0,69.0
-244.0,-1.0,-222.0,10.0,148.0,49.0,12.0,30.0
-186.0,21.0,-747.0,44.0,140.0,35.0,6.0,41.0
648.0,-7.0,-562.0,39.0,114.0,-13.0,11.0,49.0
1105.0,-30.0,-251.0,5.0,154.0,-6.0,24.0,53.0
493.0,38.0,-23.0,3.0,114.0,10.0,33.0,37.0
241.0,87.0,205.0,22.0,90.0,5.0,44.0,37.0
-25.0,60.0,334.0,37.0,106.0,42.0,42.0,69.0
226.0,52.0,345.0,7.0,106.0,39.0,-3.0,58.0
99.0,57.0,212.0,1.0,128.0,15.0,12.0,21.0
-211.0,34.0,280.0,-13.0,114.0,-8.0,28.0,20.0
-483.0,-1.0,195.0,-37.0,147.0,34.0,-6.0,12.0
-476.0,-67.0,77.0,-68.0,109.0,79.0,16.0,6.0
-599.0,-135.0,-29.0,-88.0,97.0,66.0,-4.0,16.0
-700.0,-144.0,8.0,-51.0,109.0,66.0,-27.0,24.0
238.0,-141.0,28.0,-46.0,94.0,5.0,-29.0,25.0
308.0,-125.0,-159.0,-32.0,119.0,-37.0,-39.0,7.0
187.0,-122.0,-298.0,-31.0,141.0,-58.0,-35.0,38.0
251.0,-112.0,-177.0,-40.0,154.0,-51.0,-33.0,22.0
-314.0,-20.0,83.0,-10.0,159.0,-34.0,-13.0,19.0
-675.0,105.0,83.0,12.0,168.0,-17.0,-32.0,56.0
144.0,150.0,496.0,29.0,132.0,-8.0,-47.0,51.0
1572.0,71.0,354.0,12.0,131.0,-19.0,-28.0,72.0
2389.0,31.0,-544.0,7.0,126.0,-4.0,-37.0,47.0
1216.0,-14.0,-696.0,-24.0,123.0,-39.0,-5.0,39.0
660.0,-37.0,-736.0,-19.0,105.0,-20.0,2.0,69.0
716.0,-34.0,-535.0,33.0,53.0,-6.0,-18.0,40.0
-229.0,2.0,-389.0,22.0,48.0,23.0,-17.0,58.0
-296.0,56.0,-338.0,23.0,29.0,49.0,-1.0,61.0
-331.0,34.0,-46.0,27.0,-30.0,21.0,-7.0,77.0
-29.0,16.0,-85.0,31.0,-60.0,17.0,-2.0,83.0
-432.0,-12.0,-257.0,-20.0,-54.0,8.0,14.0,67.0
-360.0,90.0,-336.0,-48.0,-62.0,-13.0,-20.0,97.0
651.0,87.0,-85.0,-66.0,-13.0,-15.0,-1.0,75.0
208.0,28.0,140.0,-71.0,-28.0,14.0,17.0,79.0
-366.0,99.0,238.0,-32.0,-20.0,36.0,-2.0,87.0
406.0,95.0,64.0,-70.0,35.0,72.0,9.0,90.0
1238.0,148.0,-87.0,-54.0,33.0,138.0,27.0,119.0
447.0,217.0,16.0,-39.0,35.0,100.0,24.0,70.0
-242.0,211.0,51.0,-9.0,3.0,67.0,20.0,49.0
-750.0,160.0,66.0,-8.0,20.0,99.0,20.0,49.0
-1298.0,73.0,84.0,12.0,41.0,66.0,40.0,26.0
-1156.0,-40.0,112.0,17.0,68.0,44.0,20.0,23.0
-549.0,-58.0,107.0,-29.0,69.0,-71.0,34.0,27.0
300.0,-38.0,122.0,-9.0,79.0,-179.0,37.0,29.0
473.0,-66.0,45.0,-19.0,66.0,-172.0,27.0,22.0
452.0,-82.0,24.0,-49.0,72.0,-178.0,29.0,34.0
477.0,-94.0,31.0,-55.0,78.0,-124.0,39.0,18.0
430.0,-21.0,45.0,-50.0,70.0,18.0,67.0,44.0
301.0,-31.0,20.0,-41.0,44.0,42.0,73.0,15.0
733.0,-78.0,-7.0,-56.0,42.0,31.0,77.0,11.0
1429.0,-27.0,-16.0,-37.0,14.0,50.0,86.0,22.0
1311.0,-18.0,-28.0,-14.0,-41.0,27.0,97.0,8.0
553.0,-55.0,27.0,0.0,-40.0,36.0,83.0,11.0
-244.0,-109.0,-9.0,15.0,-54.0,20.0,94.0,3.0
342.0,-131.0,-6.0,-21.0,-64.0,32.0,81.0,25.0
1384.0,-104.0,-13.0,-25.0,-72.0,27.0,83.0,8.0
517.0,-43.0,-47.0,-4.0,-55.0,22.0,81.0,-11.0
-909.0,18.0,-18.0,-13.0,-111.0,7.0,61.0,-42.0
-1218.0,70.0,-10.0,1.0,-127.0,33.0,76.0,-10.0
-1430.0,52.0,-9.0,-17.0,-75.0,47.0,65.0,39.0
-775.0,-8.0,-70.0,-10.0,-99.0,-21.0,75.0,122.0
-354.0,-46.0,-67.0,-22.0,-78.0,8.0,66.0,247.0
-323.0,-26.0,15.0,-15.0,-78.0,24.0,64.0,255.0
17.0,24.0,-3.0,12.0,-90.0,24.0,54.0,112.0
328.0,24.0,-44.0,34.0,-109.0,35.0,61.0,13.0
204.0,-11.0,-37.0,43.0,-107.0,19.0,66.0,-139.0
-295.0,-18.0,-7.0,22.0,-92.0,28.0,66.0,-345.0
-321.0,-35.0,-13.0,24.0,-98.0,46.0,68.0,-386.0
-271.0,-26.0,-38.0,8.0,-60.0,73.0,82.0,-492.0
-116.0,-13.0,-40.0,21.0,-47.0,83.0,79.0,-524.0
118.0,-4.0,-57.0,-28.0,-43.0,43.0,76.0,-76.0
758.0,82.0,-57.0,-26.0,-49.0,14.0,72.0,40.0
725.0,82.0,-50.0,-3.0,-64.0,16.0,49.0,-11.0
9.0,37.0,0.0,-34.0,-75.0,23.0,53.0,193.0
-104.0,57.0,15.0,-5.0,-72.0,14.0,27.0,142.0
-152.0,57.0,-10.0,-25.0,-63.0,-19.0,29.0,153.0
-168.0,30.0,-23.0,-17.0,-79.0,26.0,36.0,80.0
-60.0,14.0,-36.0,7.0,-95.0,35.0,35.0,100.0
176.0,-28.0,-27.0,-14.0,-92.0,-10.0,47.0,21.0
412.0,-103.0,-8.0,-30.0,-103.0,-11.0,33.0,-140.0
327.0,-128.0,374.0,-25.0,-144.0,-19.0,23.0,-31.0
543.0,-102.0,2356.0,-31.0,-130.0,-32.0,37.0,128.0
342.0,-99.0,4000.0,-61.0,-122.0,-23.0,9.0,239.0
-162.0,-101.0,3433.0,-40.0,-108.0,-6.0,20.0,184.0
495.0,-48.0,-212.0,-48.0,-93.0,25.0,46.0,149.0
1283.0,-43.0,-2770.0,-33.0,-82.0,67.0,24.0,33.0
1226.0,-28.0,-4000.0,9.0,-85.0,61.0,26.0,-69.0
1108.0,58.0,-3795.0,-14.0,-54.0,33.0,25.0,-152.0
849.0,103.0,-3083.0,0.0,-5.0,27.0,12.0,-344.0
-470.0,-14.0,-1944.0,-8.0,1.0,0.0,-20.0,-319.0
-1634.0,-89.0,-1193.0,-21.0,32.0,-28.0,-22.0,11.0
-1585.0,-26.0,-1410.0,39.0,61.0,6.0,-53.0,43.0
-1531.0,-11.0,-994.0,105.0,48.0,-17.0,-69.0,3.0
-1978.0,71.0,10.0,118.0,31.0,80.0,-43.0,97.0
-2154.0,135.0,498.0,57.0,58.0,236.0,-23.0,66.0
-2123.0,163.0,133.0,-10.0,75.0,127.0,0.0,99.0
-1495.0,114.0,655.0,-54.0,23.0,61.0,-18.0,60.0
-765.0,115.0,663.0,-57.0,8.0,67.0,-14.0,67.0
-123.0,256.0,891.0,-67.0,-17.0,8.0,-19.0,67.0
538.0,213.0,1042.0,-71.0,-26.0,-84.0,13.0,70.0
473.0,98.0,736.0,-40.0,29.0,-109.0,18.0,77.0
277.0,11.0,606.0,-13.0,16.0,-43.0,13.0,41.0
368.0,-36.0,410.0,-16.0,26.0,-69.0,29.0,49.0
487.0,-39.0,785.0,-14.0,41.0,-47.0,32.0,30.0
725.0,-30.0,1112.0,-23.0,28.0,24.0,66.0,30.0
1281.0,-24.0,872.0,-5.0,52.0,29.0,78.0,33.0
2459.0,-70.0,32.0,9.0,85.0,41.0,93.0,29.0
2987.0,-30.0,-651.0,-31.0,77.0,49.0,113.0,12.0
961.0,-38.0,-585.0,7.0,56.0,51.0,124.0,32.0
-1000.0,-16.0,-276.0,22.0,69.0,56.0,113.0,12.0
-1417.0,46.0,-189.0,41.0,63.0,48.0,101.0,-11.0
-1552.0,25.0,14.0,33.0,104.0,37.0,104.0,-5.0
-1218.0,28.0,101.0,6.0,134.0,62.0,94.0,-6.0
-609.0,-19.0,26.0,15.0,141.0,66.0,107.0,-1.0
-43.0,-67.0,69.0,-54.0,202.0,46.0,69.0,-11.0
155.0,-28.0,147.0,-56.0,184.0,45.0,78.0,-7.0
370.0,52.0,125.0,-52.0,200.0,50.0,77.0,7.0
256.0,72.0,177.0,-61.0,199.0,36.0,51.0,16.0
69.0,31.0,284.0,-9.0,198.0,28.0,49.0,1.0
-28.0,-43.0,345.0,-45.0,232.0,29.0,28.0,-22.0
-25.0,-62.0,390.0,-93.0,176.0,27.0,51.0,14.0
166.0,-5.0,331.0,-108.0,163.0,40.0,20.0,-3.0
151.0,12.0,244.0,-121.0,166.0,24.0,20.0,-14.0
298.0,-26.0,172.0,-77.0,165.0,32.0,32.0,9.0
464.0,-37.0,321.0,-17.0,163.0,26.0,-16.0,-10.0
325.0,44.0,398.0,-21.0,163.0,8.0,-33.0,-36.0
302.0,-3.0,317.0,3.0,130.0,32.0,-48.0,-30.0
208.0,-36.0,207.0,20.0,132.0,17.0,-50.0,-3.0
-111.0,-32.0,183.0,-29.0,108.0,0.0,-63.0,-24.0
-128.0,-56.0,263.0,-15.0,48.0,26.0,-90.0,-38.0
-150.0,-42.0,250.0,-44.0,52.0,32.0,-84.0,-13.0
-102.0,-17.0,118.0,-67.0,24.0,13.0,-76.0,29.0
38.0,49.0,-16.0,-32.0,89.0,54.0,-69.0,33.0
250.0,60.0,-129.0,-42.0,85.0,43.0,-88.0,7.0
452.0,11.0,-182.0,-19.0,34.0,13.0,-93.0,10.0
222.0,-16.0,-61.0,42.0,-12.0,23.0,-101.0,-3.0
49.0,9.0,150.0,87.0,-80.0,8.0,-134.0,-13.0
296.0,-23.0,85.0,45.0,-87.0,51.0,-98.0,-5.0
1281.0,-80.0,-114.0,-5.0,-111.0,48.0,-92.0,19.0
2322.0,-102.0,-131.0,-13.0,-121.0,23.0,-122.0,8.0
2092.0,-92.0,396.0,4.0,-133.0,9.0,-114.0,2.0
1319.0,-84.0,1674.0,12.0,-137.0,1.0,-107.0,8.0
163.0,-56.0,2266.0,-56.0,-139.0,-3.0,-104.0,-5.0
-962.0,-65.0,1224.0,-63.0,-95.0,-10.0,-117.0,-47.0
-1950.0,-117.0,-563.0,-46.0,-12.0,-13.0,-112.0,-123.0
-2693.0,-80.0,-1518.0,-36.0,65.0,-4.0,-98.0,-118.0
-2374.0,-24.0,-1198.0,-33.0,150.0,21.0,-92.0,25.0
-2112.0,18.0,-628.0,-35.0,218.0,48.0,-81.0,124.0
-2377.0,70.0,-986.0,12.0,253.0,69.0,-72.0,100.0
-2899.0,108.0,-1427.0,31.0,260.0,50.0,-62.0,36.0
-2309.0,78.0,-1498.0,25.0,332.0,41.0,-30.0,-22.0
-1170.0,117.0,-1630.0,47.0,379.0,-3.0,-35.0,-104.0
-599.0,238.0,-1192.0,75.0,399.0,-39.0,-27.0,-153.0
-171.0,238.0,-373.0,64.0,415.0,-6.0,7.0,-133.0
45.0,132.0,498.0,43.0,440.0,23.0,-6.0,-220.0
436.0,44.0,533.0,59.0,440.0,14.0,5.0,-95.0
517.0,46.0,195.0,44.0,415.0,-10.0,19.0,92.0
908.0,-32.0,-56.0,16.0,379.0,-10.0,47.0,44.0
1485.0,-31.0,372.0,-19.0,330.0,-3.0,64.0,99.0
847.0,-1.0,931.0,-42.0,314.0,-6.0,62.0,76.0
82.0,-15.0,53.0,-42.0,273.0,8.0,65.0,84.0
-106.0,4.0,-538.0,-48.0,237.0,40.0,62.0,123.0
24.0,-11.0,-560.0,-34.0,180.0,32.0,69.0,77.0
25.0,-1.0,-277.0,-30.0,104.0,28.0,98.0,102.0
55.0,-45.0,-13.0,-44.0,69.0,26.0,119.0,72.0
371.0,-60.0,345.0,-30.0,-12.0,16.0,107.0,53.0
603.0,-42.0,1794.0,-37.0,-75.0,0.0,129.0,63.0
804.0,-62.0,4000.0,-19.0,-126.0,4.0,116.0,53.0
660.0,-98.0,4000.0,2.0,-216.0,8.0,107.0,37.0
530.0,-78.0,2135.0,0.0,-242.0,-14.0,151.0,69.0
232.0,-10.0,-1362.0,-39.0,-253.0,5.0,155.0,74.0
-55.0,-16.0,-2899.0,-52.0,-291.0,-3.0,148.0,76.0
-60.0,5.0,-2501.0,-59.0,-270.0,-1.0,169.0,71.0
59.0,5.0,-1412.0,-66.0,-251.0,-2.0,152.0,40.0
315.0,-16.0,-2145.0,-49.0,-216.0,-20.0,140.0,47.0
245.0,-49.0,-2073.0,-40.0,-157.0,-32.0,127.0,50.0
-46.0,-37.0,-1944.0,-43.0,-120.0,-51.0,102.0,75.0
-117.0,12.0,-1492.0,15.0,-64.0,-52.0,93.0,50.0
-88.0,6.0,-1137.0,64.0,-30.0,-19.0,102.0,38.0
-234.0,37.0,-862.0,25.0,19.0,1.0,130.0,44.0
-203.0,70.0,37.0,40.0,41.0,-29.0,103.0,53.0
38.0,69.0,152.0,-25.0,58.0,-39.0,120.0,62.0
315.0,34.0,547.0,-61.0,88.0,4.0,114.0,47.0
294.0,-14.0,476.0,-13.0,116.0,39.0,112.0,46.0
298.0,-10.0,498.0,-41.0,114.0,21.0,148.0,38.0
303.0,-13.0,541.0,-30.0,109.0,29.0,146.0,73.0
237.0,-46.0,466.0,-1.0,141.0,16.0,189.0,51.0
155.0,-37.0,642.0,-7.0,76.0,43.0,213.0,67.0
62.0,-28.0,519.0,-66.0,94.0,95.0,236.0,131.0
99.0,-2.0,467.0,-71.0,86.0,54.0,246.0,261.0
47.0,37.0,501.0,-16.0,53.0,26.0,238.0,339.0
116.0,42.0,566.0,-38.0,68.0,5.0,220.0,264.0
95.0,21.0,474.0,-53.0,44.0,66.0,172.0,249.0
80.0,-15.0,541.0,-23.0,37.0,82.0,144.0,145.0
127.0,-19.0,671.0,5.0,19.0,13.0,105.0,24.0
65.0,-3.0,671.0,18.0,11.0,47.0,73.0,-159.0
15.0,31.0,606.0,12.0,8.0,101.0,35.0,-471.0
36.0,62.0,372.0,-23.0,7.0,83.0,19.0,-622.0
35.0,55.0,268.0,-8.0,-21.0,51.0,21.0,-407.0
-15.0,28.0,270.0,-26.0,-15.0,90.0,28.0,-124.0
-16.0,-24.0,207.0,-29.0,22.0,100.0,59.0,-91.0
-9.0,-63.0,122.0,13.0,26.0,124.0,58.0,33.0
15.0,-34.0,-86.0,10.0,53.0,145.0,42.0,186.0
-3.0,-60.0,-363.0,2.0,24.0,118.0,37.0,235.0
1.0,-39.0,-380.0,-11.0,51.0,115.0,28.0,182.0
21.0,-5.0,-167.0,-56.0,82.0,87.0,4.0,131.0
33.0,13.0,-29.0,-57.0,99.0,102.0,-29.0,102.0
53.0,46.0,135.0,-22.0,114.0,113.0,-68.0,276.0
24.0,58.0,95.0,8.0,80.0,75.0,-98.0,384.0
7.0,78.0,-324.0,0.0,75.0,92.0,-109.0,46.0
-19.0,77.0,-441.0,28.0,28.0,82.0,-110.0,-146.0
-37.0,98.0,64.0,54.0,21.0,64.0,-107.0,58.0
0.0,58.0,1414.0,41.0,-9.0,66.0,-124.0,2.0
12.0,23.0,2917.0,-25.0,-89.0,65.0,-104.0,-242.0
-37.0,25.0,2718.0,-133.0,-98.0,57.0,-80.0,-456.0
-97.0,36.0,556.0,-163.0,-109.0,10.0,-94.0,-759.0
-79.0,17.0,-1520.0,-145.0,-142.0,53.0,-102.0,-333.0
-71.0,30.0,-1797.0,-103.0,-181.0,91.0,-127.0,189.0
-86.0,60.0,-1648.0,-69.0,-229.0,78.0,-130.0,33.0
-61.0,108.0,-1563.0,-25.0,-270.0,51.0,-134.0,131.0
-67.0,136.0,-1617.0,2.0,-287.0,-12.0,-122.0,134.0
-82.0,124.0,-1947.0,-7.0,-309.0,23.0,-120.0,108.0
-62.0,111.0,-1410.0,38.0,-338.0,6.0,-134.0,151.0
-52.0,34.0,-338.0,109.0,-392.0,-63.0,-110.0,105.0
-77.0,17.0,1068.0,164.0,-372.0,-11.0,-117.0,194.0
-90.0,-22.0,2460.0,105.0,-339.0,16.0,-97.0,130.0
-123.0,-82.0,4000.0,12.0,-341.0,35.0,-75.0,108.0
-144.0,-42.0,2665.0,10.0,-343.0,46.0,-55.0,145.0
-106.0,54.0,-1297.0,-24.0,-345.0,47.0,-31.0,218.0
-69.0,-46.0,-2607.0,-39.0,-352.0,91.0,-26.0,168.0
27.0,-202.0,-3485.0,-38.0,-356.0,69.0,-7.0,70.0
973.0,-264.0,-3718.0,-44.0,-333.0,55.0,-17.0,25.0
3234.0,-359.0,-3355.0,-24.0,-333.0,66.0,-20.0,-66.0
2809.0,-300.0,-2692.0,-96.0,-295.0,24.0,-19.0,-114.0
-443.0,-214.0,-1158.0,-52.0,-295.0,10.0,-12.0,-166.0
-1682.0,-128.0,-358.0,68.0,-267.0,-15.0,-12.0,-189.0
-2452.0,-109.0,-78.0,84.0,-215.0,-42.0,25.0,-88.0
-2402.0,-36.0,248.0,101.0,-217.0,-30.0,47.0,44.0
-1472.0,95.0,1233.0,49.0,-180.0,-39.0,55.0,-9.0
-771.0,160.0,2260.0,44.0,-179.0,-26.0,51.0,37.0
-188.0,228.0,2159.0,59.0,-152.0,-20.0,30.0,20.0
-327.0,105.0,1314.0,-10.0,-113.0,-40.0,33.0,-35.0
-237.0,7.0,923.0,-32.0,-93.0,-49.0,1.0,13.0
-483.0,40.0,823.0,-66.0,-85.0,-33.0,7.0,-26.0
-457.0,83.0,419.0,-66.0,-58.0,-23.0,-9.0,-4.0
20.0,83.0,198.0,-68.0,-9.0,-28.0,-3.0,1.0
825.0,95.0,1062.0,-87.0,5.0,-13.0,19.0,17.0
854.0,135.0,1479.0,-75.0,32.0,4.0,10.0,18.0
3.0,126.0,290.0,-76.0,49.0,22.0,16.0,23.0
-323.0,84.0,-206.0,28.0,82.0,-2.0,2.0,9.0
-645.0,39.0,-271.0,54.0,88.0,10.0,2.0,13.0
-453.0,38.0,-247.0,-20.0,89.0,-23.0,27.0,25.0
147.0,38.0,-173.0,-4.0,114.0,-21.0,29.0,16.0
961.0,51.0,-519.0,2.0,112.0,1.0,25.0,-15.0
3200.0,12.0,-507.0,20.0,119.0,-2.0,32.0,28.0
4000.0,-49.0,-776.0,10.0,123.0,13.0,59.0,129.0
2728.0,-93.0,-578.0,-17.0,125.0,-27.0,78.0,46.0
-1152.0,-53.0,299.0,20.0,137.0,-14.0,66.0,45.0
-2528.0,-4.0,651.0,19.0,102.0,-26.0,71.0,62.0
-2696.0,-6.0,8.0,-16.0,128.0,-2.0,59.0,47.0
-1915.0,32.0,-490.0,-1.0,148.0,-3.0,54.0,90.0
-1149.0,49.0,-385.0,2.0,147.0,-25.0,49.0,49.0
-915.0,68.0,19.0,5.0,169.0,-9.0,56.0,26.0
-1856.0,28.0,564.0,-29.0,157.0,-38.0,88.0,18.0
-1704.0,27.0,931.0,-48.0,199.0,-34.0,79.0,52.0
-314.0,126.0,1794.0,-79.0,212.0,-6.0,73.0,34.0
-360.0,99.0,2483.0,-136.0,237.0,17.0,75.0,43.0
-348.0,20.0,2395.0,-83.0,272.0,29.0,99.0,51.0
86.0,10.0,2017.0,-112.0,297.0,18.0,106.0,53.0
1362.0,-23.0,592.0,-90.0,302.0,27.0,137.0,58.0
1869.0,-67.0,-847.0,-68.0,302.0,25.0,124.0,0.0
395.0,-44.0,-1492.0,-83.0,332.0,-5.0,123.0,5.0
1240.0,-39.0,-1769.0,12.0,349.0,-59.0,152.0,-9.0
2393.0,-72.0,-820.0,-28.0,367.0,-51.0,116.0,24.0
202.0,-71.0,1387.0,-53.0,367.0,34.0,126.0,72.0
-1339.0,-52.0,1361.0,-14.0,375.0,42.0,124.0,72.0
-1544.0,-26.0,-1362.0,-31.0,379.0,62.0,123.0,26.0
-1752.0,-44.0,-1769.0,-7.0,390.0,93.0,104.0,-32.0
-1585.0,-74.0,-433.0,38.0,354.0,109.0,107.0,50.0
-1365.0,-42.0,1062.0,36.0,351.0,91.0,89.0,90.0
-555.0,6.0,467.0,30.0,337.0,31.0,44.0,-27.0
-566.0,48.0,-1419.0,18.0,309.0,18.0,53.0,123.0
-954.0,78.0,-562.0,19.0,318.0,-10.0,25.0,160.0
192.0,50.0,75.0,77.0,296.0,16.0,12.0,27.0
495.0,64.0,-2241.0,124.0,314.0,14.0,-21.0,-12.0
373.0,49.0,-3846.0,97.0,288.0,43.0,-17.0,-269.0
798.0,25.0,-3437.0,81.0,270.0,81.0,0.0,-543.0
725.0,82.0,-2822.0,48.0,282.0,54.0,-40.0,-549.0
847.0,70.0,-1678.0,-35.0,293.0,73.0,-24.0,-129.0
790.0,33.0,-1166.0,-85.0,253.0,37.0,-33.0,4.0
758.0,-38.0,-358.0,-98.0,226.0,7.0,-49.0,-6.0
725.0,-104.0,152.0,-10.0,247.0,-25.0,-53.0,84.0
650.0,-147.0,95.0,56.0,201.0,-56.0,-59.0,17.0
594.0,-159.0,541.0,-24.0,193.0,-20.0,-51.0,100.0
543.0,-95.0,1627.0,-74.0,169.0,45.0,-65.0,74.0
929.0,-76.0,3885.0,-99.0,122.0,76.0,-51.0,29.0
692.0,-97.0,4000.0,-107.0,96.0,94.0,-37.0,40.0
-28.0,-30.0,4000.0,-53.0,86.0,54.0,-29.0,134.0
-155.0,42.0,3072.0,-99.0,94.0,36.0,-23.0,108.0
232.0,30.0,1574.0,-150.0,72.0,51.0,2.0,71.0
1307.0,45.0,-1063.0,-120.0,45.0,50.0,-6.0,108.0
2222.0,-4.0,-2202.0,-69.0,22.0,73.0,-18.0,76.0
1372.0,-41.0,-2606.0,-30.0,12.0,61.0,9.0,96.0
-544.0,-10.0,-1581.0,-24.0,-22.0,50.0,9.0,47.0
-1639.0,50.0,-814.0,17.0,-47.0,46.0,32.0,97.0
-1585.0,82.0,-781.0,75.0,-43.0,56.0,44.0,97.0
-712.0,18.0,-548.0,55.0,-85.0,32.0,33.0,81.0
-8.0,-23.0,-698.0,98.0,-82.0,33.0,22.0,81.0
143.0,8.0,-247.0,150.0,-65.0,27.0,22.0,72.0
-482.0,-3.0,-375.0,77.0,-88.0,35.0,38.0,117.0
-1277.0,-8.0,-869.0,42.0,-107.0,58.0,24.0,94.0
-1091.0,47.0,-666.0,28.0,-120.0,34.0,13.0,64.0
-589.0,9.0,-132.0,4.0,-118.0,35.0,49.0,70.0
-443.0,-30.0,663.0,31.0,-64.0,24.0,35.0,92.0
147.0,-112.0,663.0,9.0,-83.0,46.0,10.0,89.0
798.0,-206.0,202.0,-33.0,-127.0,31.0,37.0,87.0
508.0,-76.0,152.0,-37.0,-128.0,21.0,64.0,64.0
253.0,65.0,2095.0,-46.0,-116.0,44.0,59.0,78.0
-39.0,53.0,4000.0,-69.0,-82.0,47.0,39.0,67.0
-372.0,77.0,4000.0,-44.0,-118.0,61.0,40.0,49.0
-377.0,36.0,840.0,-29.0,-98.0,39.0,50.0,78.0
-120.0,0.0,-1403.0,-54.0,-101.0,61.0,68.0,103.0
269.0,58.0,-3024.0,-76.0,-90.0,66.0,35.0,147.0
250.0,33.0,-2589.0,-62.0,-99.0,61.0,44.0,190.0
-16.0,27.0,541.0,-50.0,-102.0,36.0,62.0,176.0
-384.0,17.0,3983.0,-82.0,-64.0,35.0,23.0,148.0
-767.0,-28.0,917.0,-35.0,-84.0,78.0,45.0,58.0
-974.0,-14.0,-4000.0,12.0,-59.0,69.0,42.0,-37.0
-777.0,42.0,-4000.0,31.0,-66.0,82.0,8.0,-75.0
-352.0,64.0,-4000.0,51.0,-74.0,53.0,8.0,-200.0
220.0,135.0,-3225.0,42.0,-83.0,16.0,6.0,-191.0
550.0,164.0,-2483.0,39.0,-59.0,34.0,-29.0,-25.0
811.0,82.0,-1223.0,2.0,-65.0,15.0,-27.0,10.0
1372.0,13.0,-499.0,4.0,-39.0,-26.0,-14.0,47.0
1059.0,2.0,-8.0,4.0,-34.0,-19.0,-37.0,105.0
104.0,55.0,-67.0,80.0,-87.0,-8.0,-42.0,47.0
-162.0,41.0,439.0,137.0,-51.0,14.0,-55.0,64.0
-426.0,-27.0,1703.0,39.0,-52.0,23.0,-49.0,50.0
-474.0,-47.0,3173.0,-4.0,-49.0,57.0,-42.0,15.0
-492.0,-18.0,4000.0,-68.0,-56.0,98.0,-55.0,9.0
-710.0,-7.0,3251.0,-90.0,-45.0,54.0,-45.0,3.0
-523.0,30.0,463.0,-92.0,-52.0,69.0,-34.0,30.0
-443.0,65.0,-661.0,-121.0,-88.0,10.0,-39.0,5.0
-85.0,40.0,-122.0,-101.0,-82.0,-26.0,-48.0,41.0
23.0,38.0,1824.0,-130.0,-129.0,4.0,-51.0,73.0
6.0,38.0,1639.0,-116.0,-105.0,42.0,-20.0,86.0
82.0,43.0,847.0,-93.0,-99.0,54.0,-12.0,82.0
147.0,22.0,-94.0,-88.0,-87.0,50.0,-16.0,53.0
210.0,-2.0,-519.0,-93.0,-67.0,69.0,-17.0,69.0
168.0,6.0,-499.0,-44.0,-109.0,32.0,-15.0,50.0
422.0,25.0,-1084.0,32.0,-92.0,40.0,-14.0,51.0
1572.0,-22.0,-1004.0,4.0,-118.0,26.0,-11.0,33.0
3443.0,-92.0,124.0,3.0,-138.0,12.0,0.0,38.0
2728.0,-69.0,3267.0,-18.0,-123.0,62.0,-8.0,58.0
245.0,-50.0,4000.0,25.0,-119.0,39.0,9.0,38.0
-825.0,-88.0,3871.0,139.0,-122.0,39.0,6.0,54.0
-1699.0,-48.0,-494.0,170.0,-85.0,86.0,28.0,79.0
-1837.0,25.0,-4000.0,134.0,-79.0,57.0,47.0,61.0
-1682.0,28.0,-4000.0,20.0,-85.0,46.0,32.0,25.0
-1352.0,-7.0,-3946.0,-4.0,-36.0,41.0,30.0,18.0
-1045.0,-16.0,-1862.0,-52.0,-8.0,40.0,14.0,9.0
-1064.0,29.0,-1785.0,-111.0,-13.0,61.0,-5.0,-7.0
-518.0,52.0,-1549.0,-90.0,-8.0,40.0,18.0,-22.0
83.0,15.0,-2276.0,-3.0,-9.0,40.0,47.0,-9.0
760.0,-31.0,-1947.0,16.0,-17.0,0.0,4.0,-11.0
589.0,-68.0,-1720.0,-64.0,20.0,-17.0,48.0,-17.0
436.0,-69.0,-479.0,-70.0,50.0,9.0,65.0,-12.0
465.0,-63.0,142.0,-43.0,68.0,27.0,62.0,-27.0
108.0,-64.0,2.0,-79.0,58.0,35.0,68.0,-26.0
373.0,-51.0,1359.0,-113.0,47.0,28.0,71.0,-46.0
441.0,-51.0,2587.0,-103.0,76.0,15.0,84.0,-60.0
188.0,-20.0,2811.0,-74.0,58.0,-10.0,94.0,-54.0
-34.0,-29.0,1703.0,-30.0,78.0,6.0,112.0,-67.0
-74.0,-22.0,-116.0,-61.0,93.0,10.0,81.0,-59.0
-620.0,50.0,-320.0,-63.0,80.0,26.0,100.0,-72.0
-706.0,60.0,524.0,-16.0,103.0,20.0,92.0,-56.0
-339.0,89.0,321.0,-59.0,106.0,-29.0,123.0,-34.0
-744.0,70.0,318.0,-15.0,123.0,-15.0,120.0,-56.0
-757.0,25.0,857.0,81.0,180.0,-16.0,96.0,-59.0
-807.0,19.0,150.0,48.0,222.0,-47.0,112.0,-74.0
-445.0,26.0,-300.0,8.0,234.0,-46.0,93.0,-101.0
107.0,66.0,-175.0,42.0,265.0,-44.0,100.0,-135.0
245.0,63.0,-170.0,92.0,314.0,-49.0,91.0,-136.0
399.0,93.0,1249.0,113.0,328.0,-68.0,112.0,-121.0
184.0,95.0,1562.0,80.0,351.0,-54.0,74.0,-128.0
-80.0,44.0,-373.0,38.0,375.0,-15.0,62.0,-84.0
595.0,22.0,-1602.0,45.0,355.0,-21.0,56.0,100.0
1637.0,47.0,-1537.0,40.0,334.0,-21.0,48.0,249.0
725.0,30.0,-841.0,63.0,318.0,-7.0,87.0,170.0
-366.0,-26.0,118.0,47.0,314.0,9.0,42.0,201.0
-232.0,-48.0,476.0,-17.0,310.0,-1.0,21.0,34.0
-553.0,-37.0,556.0,-67.0,267.0,-7.0,32.0,-114.0
-197.0,-16.0,822.0,-131.0,247.0,-2.0,41.0,-99.0
530.0,0.0,858.0,-125.0,249.0,-3.0,38.0,-354.0
608.0,20.0,439.0,-120.0,222.0,-6.0,28.0,-392.0
145.0,-63.0,498.0,-145.0,196.0,5.0,26.0,-227.0
-710.0,-83.0,541.0,-141.0,183.0,39.0,29.0,-203.0
-484.0,-18.0,150.0,-159.0,164.0,78.0,23.0,-234.0
97.0,-4.0,-1.0,-169.0,148.0,98.0,9.0,-156.0
435.0,-19.0,-90.0,-143.0,125.0,76.0,28.0,-274.0
543.0,33.0,80.0,-124.0,108.0,87.0,33.0,-464.0
281.0,79.0,26.0,-90.0,131.0,62.0,40.0,-33.0
257.0,69.0,-12.0,-31.0,106.0,28.0,35.0,108.0
187.0,60.0,103.0,22.0,49.0,0.0,30.0,-143.0
114.0,-7.0,147.0,40.0,-11.0,26.0,54.0,-70.0
269.0,5.0,253.0,11.0,-43.0,107.0,47.0,-327.0
465.0,-65.0,163.0,2.0,-70.0,85.0,18.0,-431.0
155.0,-171.0,106.0,39.0,-125.0,138.0,24.0,-126.0
-195.0,-103.0,-125.0,77.0,-136.0,107.0,17.0,91.0
-44.0,1.0,-234.0,67.0,-142.0,90.0,-6.0,60.0
212.0,84.0,-245.0,99.0,-183.0,107.0,3.0,74.0
561.0,70.0,-287.0,126.0,-195.0,88.0,23.0,88.0
1030.0,77.0,-84.0,99.0,-200.0,90.0,3.0,75.0
847.0,51.0,-11.0,92.0,-222.0,79.0,5.0,100.0
-138.0,-30.0,-2.0,29.0,-212.0,78.0,26.0,65.0
-614.0,-88.0,-44.0,-27.0,-234.0,19.0,16.0,77.0
-691.0,-147.0,-42.0,-69.0,-248.0,28.0,4.0,78.0
-844.0,-114.0,-6.0,-111.0,-251.0,26.0,-20.0,104.0
-566.0,-112.0,-11.0,-50.0,-236.0,25.0,-23.0,88.0
1051.0,-106.0,-22.0,-14.0,-252.0,40.0,-30.0,103.0
4000.0,-72.0,134.0,-25.0,-269.0,34.0,-16.0,96.0
4000.0,-10.0,931.0,-57.0,-287.0,8.0,-28.0,87.0
1234.0,0.0,2525.0,-44.0,-314.0,-22.0,-36.0,97.0
-493.0,6.0,2783.0,-2.0,-277.0,29.0,-18.0,102.0
-2468.0,28.0,463.0,29.0,-299.0,8.0,-30.0,117.0
-3282.0,12.0,-1427.0,48.0,-332.0,1.0,-37.0,105.0
-2439.0,21.0,-1843.0,56.0,-343.0,-3.0,-73.0,103.0
-2322.0,22.0,-912.0,48.0,-379.0,-6.0,-79.0,106.0
-2855.0,73.0,476.0,45.0,-364.0,-16.0,-72.0,117.0
-3424.0,19.0,1062.0,57.0,-346.0,-33.0,-95.0,117.0
-1634.0,-11.0,-114.0,57.0,-354.0,-22.0,-104.0,129.0
-685.0,70.0,-2434.0,68.0,-364.0,-41.0,-85.0,190.0
-1045.0,85.0,-2122.0,72.0,-354.0,-30.0,-62.0,258.0
-909.0,84.0,-1342.0,72.0,-348.0,-39.0,-32.0,253.0
-1096.0,64.0,-2692.0,36.0,-317.0,-20.0,-33.0,165.0
-664.0,45.0,-3266.0,10.0,-335.0,16.0,-32.0,103.0
-95.0,93.0,-2438.0,-44.0,-327.0,13.0,-33.0,44.0
430.0,126.0,-1137.0,-42.0,-317.0,-10.0,-23.0,2.0
1181.0,91.0,-425.0,-46.0,-323.0,-17.0,-13.0,-23.0
1735.0,86.0,-171.0,-1.0,-334.0,20.0,-28.0,-123.0
1376.0,60.0,305.0,31.0,-350.0,10.0,36.0,-105.0
782.0,-6.0,467.0,-44.0,-299.0,10.0,50.0,128.0
660.0,-26.0,611.0,15.0,-269.0,67.0,76.0,141.0
342.0,-35.0,546.0,-8.0,-212.0,56.0,116.0,107.0
847.0,-39.0,923.0,-3.0,-170.0,34.0,126.0,163.0
2092.0,-43.0,1098.0,20.0,-146.0,30.0,168.0,105.0
2328.0,-53.0,902.0,-5.0,-118.0,43.0,168.0,153.0
1025.0,-34.0,781.0,12.0,-91.0,65.0,177.0,124.0
298.0,-8.0,663.0,-15.0,-93.0,51.0,167.0,144.0
119.0,6.0,598.0,-39.0,-84.0,24.0,160.0,144.0
-36.0,67.0,533.0,-143.0,-46.0,15.0,155.0,98.0
733.0,103.0,579.0,-139.0,-47.0,26.0,152.0,116.0
1108.0,77.0,408.0,-92.0,-8.0,46.0,180.0,98.0
589.0,26.0,376.0,-66.0,32.0,18.0,208.0,92.0
-132.0,-44.0,517.0,-55.0,48.0,13.0,213.0,66.0
-1280.0,-122.0,564.0,-84.0,60.0,35.0,206.0,53.0
-2043.0,-80.0,410.0,-78.0,70.0,23.0,243.0,38.0
-1283.0,43.0,410.0,-90.0,63.0,-5.0,256.0,31.0
-566.0,91.0,400.0,-55.0,50.0,-29.0,236.0,24.0
-824.0,21.0,341.0,-44.0,78.0,-17.0,213.0,0.0
-756.0,-70.0,288.0,-46.0,86.0,-36.0,191.0,-22.0
-560.0,-53.0,177.0,-54.0,125.0,-39.0,146.0,-25.0
-453.0,-13.0,137.0,-50.0,147.0,-27.0,132.0,-16.0
-84.0,-15.0,92.0,-3.0,135.0,-40.0,152.0,-39.0
315.0,6.0,118.0,18.0,166.0,-25.0,114.0,-25.0
843.0,99.0,115.0,12.0,183.0,-31.0,126.0,-14.0
965.0,24.0,113.0,-1.0,180.0,-59.0,109.0,-17.0
855.0,-144.0,47.0,-1.0,182.0,-64.0,82.0,-40.0
1025.0,-118.0,7.0,-10.0,180.0,-61.0,53.0,-47.0
823.0,-104.0,5.0,-23.0,199.0,-58.0,7.0,-49.0
509.0,-97.0,-20.0,-28.0,232.0,-47.0,-13.0,-31.0
473.0,-48.0,-26.0,-16.0,232.0,-55.0,-69.0,-19.0
521.0,25.0,-50.0,-20.0,196.0,-66.0,-51.0,-39.0
564.0,66.0,-18.0,-33.0,219.0,-42.0,-71.0,-18.0
58.0,-8.0,-26.0,3.0,241.0,-10.0,-90.0,-30.0
-271.0,-23.0,-83.0,-5.0,241.0,-6.0,-109.0,-38.0
-545.0,-56.0,-154.0,-44.0,243.0,8.0,-130.0,-15.0
-873.0,-67.0,-151.0,-26.0,219.0,27.0,-134.0,-15.0
-376.0,-21.0,-107.0,4.0,241.0,0.0,-161.0,-19.0
855.0,-10.0,-75.0,12.0,241.0,20.0,-147.0,-9.0
699.0,62.0,-166.0,-22.0,247.0,18.0,-176.0,-3.0
-76.0,102.0,-198.0,-18.0,302.0,3.0,-194.0,-7.0
-138.0,127.0,-52.0,10.0,335.0,31.0,-195.0,6.0
-1560.0,130.0,205.0,15.0,375.0,12.0,-185.0,30.0
-1886.0,146.0,492.0,50.0,460.0,32.0,-149.0,40.0
-1853.0,140.0,337.0,23.0,505.0,24.0,-151.0,37.0
-1524.0,120.0,201.0,-6.0,526.0,25.0,-142.0,58.0
-382.0,105.0,923.0,10.0,553.0,40.0,-140.0,60.0
-99.0,-1.0,1508.0,-28.0,562.0,12.0,-162.0,38.0
-331.0,-74.0,432.0,-66.0,606.0,7.0,-188.0,-8.0
-763.0,-54.0,-759.0,-36.0,635.0,5.0,-184.0,-37.0
-352.0,-28.0,-882.0,2.0,672.0,21.0,-156.0,18.0
-191.0,-21.0,-1302.0,5.0,692.0,56.0,-154.0,18.0
80.0,-16.0,-1478.0,29.0,721.0,97.0,-149.0,-32.0
346.0,-25.0,-1387.0,16.0,706.0,90.0,-138.0,136.0
758.0,-20.0,-1362.0,-14.0,668.0,-9.0,-124.0,71.0
994.0,-68.0,-906.0,-21.0,615.0,-91.0,-97.0,-18.0
241.0,-60.0,-651.0,-10.0,531.0,-46.0,-98.0,53.0
31.0,14.0,-466.0,-9.0,462.0,-38.0,-64.0,-61.0
305.0,-18.0,-147.0,-21.0,403.0,-18.0,-39.0,-6.0
399.0,-81.0,-102.0,-40.0,342.0,19.0,0.0,77.0
369.0,-97.0,-237.0,-56.0,275.0,2.0,38.0,81.0
281.0,-73.0,331.0,-8.0,255.0,13.0,42.0,87.0
17.0,-46.0,1152.0,-32.0,241.0,17.0,47.0,71.0
-114.0,-19.0,1877.0,-48.0,200.0,22.0,43.0,30.0
277.0,17.0,1877.0,-38.0,155.0,-10.0,56.0,-5.0
559.0,64.0,1359.0,-52.0,86.0,-6.0,78.0,56.0
181.0,46.0,1432.0,-52.0,36.0,27.0,91.0,76.0
-2.0,50.0,911.0,-71.0,0.0,31.0,133.0,70.0
-14.0,80.0,728.0,-37.0,-44.0,29.0,131.0,80.0
-225.0,34.0,1965.0,-7.0,-77.0,1.0,160.0,46.0
-254.0,30.0,1692.0,4.0,-68.0,20.0,200.0,-22.0
-241.0,18.0,-1229.0,2.0,-82.0,44.0,225.0,-6.0
-255.0,-1.0,-3591.0,11.0,-75.0,45.0,254.0,45.0
-277.0,-27.0,-4000.0,27.0,-56.0,42.0,236.0,38.0
-193.0,-38.0,-3864.0,20.0,-63.0,54.0,235.0,46.0
-68.0,-21.0,-2524.0,-4.0,-7.0,79.0,188.0,56.0
45.0,-50.0,-1223.0,-22.0,137.0,46.0,165.0,64.0
114.0,-12.0,390.0,-72.0,216.0,53.0,113.0,74.0
235.0,3.0,996.0,-42.0,0.0,66.0,82.0,62.0
281.0,5.0,703.0,93.0,-92.0,63.0,77.0,39.0
185.0,25.0,-70.0,55.0,-131.0,78.0,48.0,-2.0
203.0,44.0,-225.0,36.0,-236.0,64.0,45.0,38.0
171.0,34.0,-239.0,45.0,-252.0,71.0,39.0,106.0
145.0,7.0,18.0,18.0,-364.0,62.0,47.0,165.0
120.0,5.0,792.0,31.0,-360.0,58.0,45.0,201.0
104.0,2.0,988.0,-15.0,-395.0,47.0,36.0,129.0
134.0,32.0,606.0,22.0,-380.0,70.0,39.0,77.0
145.0,34.0,461.0,7.0,-374.0,89.0,31.0,-23.0
177.0,39.0,392.0,2.0,-402.0,77.0,30.0,-137.0
157.0,52.0,146.0,42.0,-360.0,64.0,21.0,-187.0
132.0,22.0,203.0,14.0,-429.0,47.0,22.0,-321.0
130.0,28.0,476.0,-51.0,-421.0,49.0,4.0,-269.0
86.0,31.0,1299.0,-72.0,-411.0,39.0,33.0,15.0
74.0,48.0,2030.0,-68.0,-384.0,40.0,45.0,174.0
80.0,26.0,2783.0,-28.0,-356.0,49.0,31.0,230.0
56.0,-1.0,4000.0,-17.0,-354.0,62.0,46.0,196.0
51.0,11.0,3648.0,-77.0,-332.0,87.0,25.0,100.0
53.0,8.0,-190.0,-51.0,-309.0,71.0,25.0,43.0
66.0,-7.0,-3946.0,-44.0,-263.0,56.0,30.0,-76.0
64.0,1.0,-4000.0,-32.0,-269.0,52.0,56.0,-183.0
7.0,5.0,-3683.0,-6.0,-253.0,28.0,67.0,-443.0
39.0,2.0,-1520.0,-15.0,-229.0,41.0,54.0,-555.0
65.0,25.0,-633.0,-21.0,-211.0,42.0,97.0,-129.0
27.0,-22.0,-432.0,-32.0,-205.0,62.0,77.0,53.0
24.0,-50.0,-92.0,-84.0,-217.0,61.0,65.0,-6.0
4.0,-38.0,-32.0,-114.0,-190.0,43.0,104.0,83.0
-5.0,-35.0,1062.0,-57.0,-214.0,87.0,82.0,56.0
-29.0,12.0,1237.0,-51.0,-229.0,79.0,71.0,112.0
-13.0,11.0,1068.0,-35.0,-227.0,82.0,59.0,102.0
-13.0,25.0,1550.0,-17.0,-267.0,75.0,25.0,119.0
-46.0,43.0,2054.0,-28.0,-262.0,67.0,31.0,171.0
-74.0,36.0,1479.0,-9.0,-284.0,65.0,40.0,255.0
-51.0,59.0,512.0,-21.0,-299.0,77.0,42.0,406.0
11.0,60.0,-198.0,-54.0,-299.0,86.0,61.0,341.0
-1.0,52.0,-1347.0,-32.0,-285.0,90.0,56.0,304.0
-13.0,30.0,-1813.0,4.0,-229.0,83.0,17.0,235.0
-6.0,18.0,-1992.0,35.0,-228.0,67.0,14.0,144.0
-47.0,6.0,-1635.0,63.0,-228.0,98.0,9.0,43.0
-35.0,-33.0,-1150.0,40.0,-205.0,107.0,-35.0,-122.0
-64.0,-7.0,385.0,-14.0,-168.0,78.0,-32.0,-232.0
-138.0,1.0,2329.0,16.0,-147.0,90.0,-72.0,-51.0
-108.0,13.0,1680.0,54.0,-149.0,124.0,-90.0,148.0
-101.0,-17.0,872.0,48.0,-95.0,90.0,-69.0,63.0
-116.0,-21.0,1003.0,8.0,-65.0,86.0,-74.0,123.0
-135.0,36.0,-601.0,-46.0,-61.0,69.0,-59.0,172.0
-113.0,19.0,-1813.0,-46.0,-15.0,68.0,-74.0,117.0
-73.0,37.0,-1911.0,-33.0,-21.0,64.0,-73.0,69.0
-75.0,-4.0,-1720.0,-29.0,-16.0,27.0,-81.0,36.0
-88.0,-21.0,-502.0,-38.0,-12.0,43.0,-86.0,36.0
-85.0,-29.0,-165.0,-33.0,-15.0,67.0,-58.0,0.0
-99.0,-42.0,-499.0,7.0,5.0,89.0,-61.0,12.0
-146.0,21.0,-882.0,59.0,4.0,82.0,-49.0,11.0
-148.0,-15.0,-96.0,61.0,-8.0,58.0,-48.0,17.0
-89.0,-15.0,2421.0,29.0,20.0,3.0,-32.0,14.0
-76.0,9.0,2266.0,-30.0,60.0,-6.0,-10.0,14.0
-109.0,-12.0,-424.0,-127.0,60.0,-30.0,-27.0,13.0
-66.0,-24.0,-1339.0,-141.0,90.0,-42.0,-9.0,14.0
-97.0,-2.0,-2215.0,-64.0,154.0,-33.0,-10.0,28.0
-163.0,52.0,-2085.0,-25.0,182.0,-42.0,-11.0,24.0
-132.0,54.0,-882.0,16.0,202.0,-25.0,14.0,28.0
-118.0,31.0,-50.0,69.0,216.0,-55.0,-12.0,10.0
-76.0,-24.0,1739.0,7.0,212.0,-61.0,2.0,-5.0
-91.0,-36.0,4000.0,-13.0,204.0,-43.0,6.0,18.0
-93.0,-18.0,4000.0,4.0,209.0,-47.0,15.0,1.0
-85.0,-5.0,2612.0,-40.0,220.0,-42.0,44.0,4.0
-117.0,-42.0,2616.0,-80.0,216.0,-36.0,40.0,16.0
-56.0,-27.0,178.0,-92.0,247.0,-44.0,58.0,9.0
-86.0,-48.0,-3015.0,-21.0,272.0,-50.0,68.0,22.0
-116.0,-157.0,-1882.0,-9.0,255.0,-49.0,65.0,23.0
-97.0,-62.0,-385.0,-82.0,235.0,-35.0,78.0,27.0
-75.0,12.0,663.0,-111.0,235.0,-16.0,54.0,3.0
-1.0,49.0,-2744.0,-56.0,207.0,-34.0,50.0,6.0
25.0,30.0,-4000.0,16.0,167.0,-19.0,73.0,24.0
15.0,-4.0,-4000.0,55.0,154.0,-51.0,61.0,6.0
28.0,-7.0,-2805.0,110.0,153.0,-66.0,61.0,17.0
45.0,12.0,-28.0,109.0,144.0,-56.0,36.0,13.0
56.0,66.0,2259.0,49.0,143.0,-59.0,73.0,8.0
60.0,43.0,3054.0,48.0,169.0,-19.0,59.0,10.0
37.0,55.0,152.0,36.0,180.0,-14.0,48.0,1.0
2.0,70.0,-1127.0,-7.0,227.0,-17.0,77.0,-9.0
61.0,5.0,-1563.0,-24.0,261.0,-32.0,37.0,-35.0
17.0,-38.0,-994.0,-57.0,281.0,-26.0,63.0,-67.0
-155.0,-50.0,1443.0,-107.0,288.0,-48.0,56.0,-75.0
-167.0,-104.0,2474.0,-97.0,290.0,-59.0,40.0,-53.0
-138.0,-79.0,1900.0,-81.0,293.0,-58.0,44.0,-71.0
-105.0,-53.0,-285.0,-70.0,324.0,-44.0,48.0,-43.0
-91.0,-85.0,-1760.0,15.0,325.0,-25.0,93.0,-16.0
-193.0,-65.0,-2027.0,81.0,328.0,-48.0,78.0,-34.0
-201.0,15.0,-1655.0,73.0,336.0,-40.0,47.0,-17.0
-109.0,132.0,-976.0,77.0,336.0,-22.0,38.0,-49.0
-46.0,124.0,125.0,19.0,324.0,-37.0,38.0,-70.0
-25.0,93.0,1868.0,-5.0,314.0,-8.0,44.0,-88.0
-18.0,132.0,3510.0,0.0,340.0,-2.0,29.0,-76.0
33.0,96.0,2795.0,-57.0,308.0,-22.0,39.0,-40.0
85.0,33.0,1314.0,-109.0,302.0,10.0,28.0,-39.0
23.0,-7.0,-505.0,-84.0,282.0,29.0,17.0,-18.0
-29.0,17.0,-2175.0,-64.0,252.0,32.0,27.0,-33.0
-12.0,4.0,-1166.0,-68.0,214.0,-18.0,8.0,-41.0
-13.0,-55.0,-320.0,-48.0,184.0,-20.0,6.0,-39.0
32.0,-101.0,336.0,-66.0,218.0,-19.0,26.0,-49.0
73.0,-163.0,2018.0,-93.0,218.0,-33.0,13.0,-61.0
64.0,-60.0,4000.0,-65.0,224.0,-10.0,12.0,-62.0
74.0,-41.0,3510.0,-17.0,237.0,25.0,13.0,-34.0
49.0,-103.0,654.0,22.0,242.0,70.0,17.0,-31.0
43.0,-92.0,4000.0,-34.0,261.0,67.0,25.0,-35.0
41.0,-183.0,4000.0,-76.0,267.0,53.0,36.0,-33.0
5.0,-179.0,1310.0,4.0,253.0,44.0,29.0,-15.0
-46.0,-66.0,-3537.0,0.0,260.0,48.0,18.0,-20.0
-89.0,11.0,-4000.0,20.0,235.0,37.0,32.0,-9.0
-85.0,52.0,-4000.0,32.0,190.0,-22.0,23.0,-28.0
-52.0,129.0,-4000.0,59.0,196.0,24.0,5.0,-66.0
151.0,160.0,-4000.0,122.0,190.0,94.0,-31.0,-64.0
325.0,102.0,-4000.0,33.0,180.0,69.0,-49.0,-50.0
310.0,113.0,-3071.0,106.0,167.0,56.0,-41.0,-27.0
133.0,108.0,-2045.0,226.0,161.0,49.0,-26.0,-28.0
-191.0,68.0,830.0,128.0,159.0,65.0,-35.0,-15.0
-223.0,108.0,3885.0,69.0,109.0,71.0,-41.0,-31.0
-244.0,99.0,3185.0,124.0,79.0,71.0,-22.0,-9.0
-273.0,99.0,736.0,132.0,58.0,80.0,-28.0,-2.0
-32.0,125.0,-217.0,75.0,52.0,100.0,-33.0,-16.0
-85.0,90.0,-812.0,-41.0,27.0,70.0,-25.0,35.0
-157.0,20.0,889.0,-141.0,-27.0,29.0,-19.0,6.0
-161.0,-34.0,2094.0,-157.0,-59.0,58.0,-17.0,16.0
-144.0,-16.0,2201.0,-116.0,-56.0,72.0,-19.0,33.0
34.0,-26.0,1367.0,-98.0,-60.0,65.0,-26.0,19.0
48.0,34.0,1184.0,-62.0,-78.0,90.0,-8.0,39.0
112.0,99.0,1365.0,-37.0,-92.0,103.0,-14.0,36.0
147.0,46.0,345.0,-63.0,-143.0,51.0,-26.0,37.0
174.0,16.0,546.0,-52.0,-158.0,54.0,-10.0,63.0
168.0,-10.0,345.0,-40.0,-193.0,74.0,-3.0,30.0
109.0,-58.0,498.0,-75.0,-209.0,70.0,11.0,28.0
194.0,-106.0,1348.0,-132.0,-217.0,67.0,1.0,50.0
422.0,-141.0,2418.0,-106.0,-234.0,51.0,-31.0,14.0
640.0,-125.0,4000.0,-78.0,-254.0,38.0,-17.0,22.0
367.0,-144.0,4000.0,-49.0,-270.0,11.0,-6.0,12.0
308.0,-169.0,657.0,-44.0,-251.0,41.0,-26.0,-18.0
538.0,-93.0,-912.0,-78.0,-288.0,31.0,9.0,-15.0
186.0,-5.0,-3485.0,-67.0,-270.0,24.0,9.0,-17.0
-189.0,-15.0,-4000.0,-84.0,-252.0,50.0,16.0,-15.0
-29.0,-5.0,-3832.0,-33.0,-276.0,21.0,10.0,-22.0
648.0,44.0,-1911.0,9.0,-263.0,32.0,-6.0,-8.0
929.0,73.0,2290.0,-62.0,-299.0,45.0,-3.0,-13.0
986.0,50.0,3186.0,-29.0,-291.0,24.0,-14.0,14.0
473.0,-19.0,1041.0,61.0,-269.0,35.0,9.0,12.0
-893.0,-63.0,-1455.0,125.0,-250.0,57.0,44.0,22.0
-1723.0,3.0,-1492.0,103.0,-227.0,61.0,67.0,35.0
-2126.0,34.0,-1022.0,48.0,-225.0,56.0,32.0,65.0
-2049.0,9.0,-1087.0,-11.0,-196.0,83.0,28.0,156.0
-1475.0,-20.0,-1264.0,-39.0,-188.0,76.0,67.0,174.0
-979.0,-44.0,-1730.0,-65.0,-182.0,62.0,71.0,124.0
-696.0,38.0,-1390.0,-18.0,-188.0,50.0,76.0,16.0
-750.0,68.0,-1231.0,32.0,-144.0,29.0,58.0,-18.0
-679.0,105.0,-736.0,-24.0,-102.0,45.0,59.0,-25.0
-98.0,152.0,-513.0,1.0,-108.0,27.0,47.0,-111.0
176.0,129.0,264.0,-6.0,-69.0,36.0,29.0,-117.0
273.0,90.0,1053.0,27.0,-18.0,50.0,66.0,-109.0
429.0,74.0,1636.0,39.0,-24.0,16.0,39.0,3.0
376.0,80.0,1627.0,-8.0,-20.0,2.0,30.0,138.0
505.0,46.0,830.0,-25.0,26.0,-28.0,49.0,24.0
559.0,1.0,703.0,-36.0,36.0,-24.0,38.0,78.0
633.0,-37.0,1770.0,-21.0,33.0,-42.0,32.0,127.0
608.0,-3.0,4000.0,-48.0,48.0,2.0,41.0,138.0
457.0,-11.0,4000.0,-6.0,52.0,2.0,59.0,190.0
452.0,-48.0,2587.0,34.0,96.0,-27.0,63.0,146.0
424.0,-23.0,-141.0,-6.0,101.0,12.0,68.0,156.0
391.0,-19.0,-1701.0,3.0,104.0,-25.0,62.0,141.0
373.0,-20.0,-3420.0,-15.0,141.0,25.0,93.0,159.0
360.0,-11.0,-3225.0,-42.0,143.0,11.0,120.0,138.0
288.0,-24.0,-2717.0,-48.0,175.0,-17.0,110.0,129.0
315.0,-50.0,-2851.0,-81.0,165.0,9.0,111.0,126.0
595.0,-70.0,166.0,-127.0,193.0,15.0,93.0,119.0
1875.0,-66.0,3871.0,-128.0,255.0,4.0,107.0,120.0
3969.0,-17.0,2398.0,-109.0,275.0,-17.0,110.0,112.0
2597.0,-44.0,-1237.0,-62.0,293.0,9.0,106.0,100.0
-255.0,-65.0,-2435.0,2.0,293.0,19.0,141.0,99.0
-1411.0,-64.0,-4000.0,-40.0,308.0,24.0,123.0,111.0
-2372.0,-77.0,-3615.0,-56.0,320.0,22.0,119.0,108.0
-1866.0,-36.0,-2123.0,22.0,306.0,29.0,95.0,108.0
-1495.0,-4.0,-761.0,51.0,302.0,31.0,110.0,93.0
-1351.0,18.0,142.0,95.0,269.0,21.0,117.0,112.0
-1947.0,40.0,172.0,88.0,234.0,34.0,81.0,75.0
-2256.0,27.0,337.0,76.0,219.0,37.0,66.0,73.0
-1105.0,71.0,272.0,31.0,253.0,54.0,37.0,61.0
-609.0,132.0,1184.0,-12.0,275.0,59.0,60.0,31.0
-136.0,87.0,1106.0,10.0,241.0,66.0,61.0,70.0
43.0,77.0,964.0,-4.0,219.0,57.0,42.0,49.0
235.0,77.0,1119.0,-23.0,267.0,81.0,50.0,46.0
447.0,44.0,976.0,-34.0,275.0,90.0,49.0,76.0
566.0,18.0,1039.0,8.0,224.0,93.0,81.0,93.0
660.0,0.0,793.0,1.0,224.0,97.0,70.0,71.0
782.0,21.0,781.0,-26.0,194.0,52.0,47.0,47.0
790.0,36.0,630.0,-10.0,184.0,71.0,41.0,11.0
570.0,44.0,598.0,-19.0,166.0,86.0,56.0,29.0
580.0,26.0,474.0,-15.0,140.0,87.0,54.0,43.0
328.0,-43.0,410.0,-20.0,180.0,98.0,36.0,7.0
31.0,-65.0,364.0,0.0,213.0,88.0,45.0,5.0
-127.0,-24.0,271.0,-10.0,182.0,66.0,33.0,-10.0
-17.0,-30.0,251.0,-55.0,141.0,71.0,44.0,-9.0
111.0,-31.0,150.0,-61.0,125.0,79.0,52.0,-9.0
27.0,-37.0,130.0,-49.0,88.0,61.0,35.0,-21.0
82.0,-46.0,38.0,-26.0,37.0,102.0,38.0,-4.0
120.0,-44.0,16.0,-22.0,-4.0,67.0,39.0,-14.0
209.0,-38.0,-55.0,-23.0,-92.0,33.0,33.0,-19.0
247.0,-7.0,-49.0,10.0,-147.0,69.0,5.0,-17.0
447.0,18.0,-68.0,5.0,-102.0,41.0,17.0,-47.0
563.0,89.0,-82.0,19.0,-33.0,40.0,-9.0,-20.0
495.0,129.0,-93.0,19.0,-105.0,40.0,-10.0,-28.0
220.0,70.0,-159.0,4.0,-172.0,41.0,3.0,-45.0
147.0,23.0,-153.0,11.0,-126.0,19.0,-13.0,-27.0
418.0,-14.0,-170.0,19.0,-188.0,4.0,7.0,-45.0
351.0,-30.0,-154.0,33.0,-229.0,-16.0,4.0,-35.0
143.0,-18.0,-160.0,-8.0,-225.0,-15.0,-20.0,-29.0
-179.0,-50.0,-122.0,-47.0,-234.0,-11.0,-14.0,-34.0
-80.0,-67.0,-148.0,-68.0,-225.0,-26.0,-19.0,-19.0
361.0,-87.0,-161.0,-63.0,-234.0,9.0,-42.0,-33.0
692.0,-102.0,-133.0,-79.0,-280.0,4.0,-47.0,-40.0
537.0,-44.0,-173.0,-122.0,-261.0,-19.0,-54.0,-43.0
408.0,18.0,-178.0,-95.0,-251.0,-25.0,-37.0,-44.0
306.0,28.0,-154.0,-30.0,-280.0,-11.0,-37.0,-25.0
-196.0,-15.0,-129.0,2.0,-299.0,-3.0,-21.0,-6.0
-436.0,-33.0,-142.0,-6.0,-328.0,-15.0,2.0,-8.0
-706.0,34.0,-163.0,8.0,-285.0,10.0,7.0,-27.0
-641.0,57.0,-128.0,12.0,-277.0,3.0,-7.0,-5.0
-815.0,102.0,-95.0,32.0,-311.0,12.0,-35.0,-7.0
-1233.0,121.0,-103.0,37.0,-338.0,-11.0,-7.0,-10.0
-1140.0,74.0,-73.0,19.0,-327.0,-30.0,13.0,24.0
-1084.0,57.0,-64.0,22.0,-281.0,-21.0,2.0,26.0
-873.0,15.0,-97.0,-3.0,-285.0,0.0,-14.0,47.0
-84.0,17.0,-82.0,-29.0,-256.0,-5.0,-29.0,23.0
368.0,26.0,-66.0,-88.0,-248.0,-3.0,-30.0,23.0
269.0,4.0,-85.0,-87.0,-241.0,12.0,-52.0,37.0
209.0,6.0,-98.0,-51.0,-221.0,-2.0,-59.0,-10.0
430.0,3.0,-38.0,-47.0,-191.0,37.0,-72.0,-65.0
961.0,-49.0,345.0,-32.0,-221.0,18.0,-53.0,-73.0
603.0,-40.0,964.0,-29.0,-317.0,-19.0,-73.0,-23.0
318.0,-28.0,708.0,-6.0,-291.0,-17.0,-83.0,-13.0
1441.0,-51.0,-28.0,-11.0,-286.0,-20.0,-72.0,-15.0
2781.0,-56.0,-515.0,2.0,-328.0,-6.0,-73.0,-8.0
2418.0,-161.0,-970.0,37.0,-274.0,-6.0,-42.0,-25.0
73.0,-174.0,-759.0,50.0,-274.0,-5.0,-64.0,-24.0
-1146.0,-118.0,-628.0,13.0,-288.0,-12.0,-51.0,-10.0
-1430.0,-91.0,-738.0,-47.0,-229.0,-23.0,-27.0,-7.0
-2061.0,-34.0,-548.0,-18.0,-239.0,-3.0,-31.0,-3.0
-2011.0,-62.0,-414.0,-28.0,-225.0,12.0,-9.0,-6.0
-1261.0,17.0,-507.0,-50.0,-260.0,9.0,-28.0,0.0
-649.0,90.0,-548.0,-14.0,-256.0,10.0,-24.0,1.0
-1031.0,95.0,-344.0,6.0,-170.0,20.0,30.0,4.0
-974.0,115.0,-304.0,-16.0,-139.0,58.0,45.0,34.0
-331.0,111.0,-148.0,-9.0,-66.0,61.0,32.0,8.0
149.0,163.0,-67.0,45.0,-68.0,62.0,80.0,-3.0
-209.0,126.0,27.0,19.0,-36.0,105.0,131.0,26.0
-620.0,132.0,140.0,52.0,47.0,105.0,127.0,22.0
-712.0,110.0,130.0,72.0,63.0,78.0,129.0,6.0
-100.0,-8.0,163.0,27.0,94.0,42.0,111.0,7.0
692.0,11.0,77.0,16.0,102.0,23.0,126.0,7.0
433.0,11.0,39.0,-29.0,140.0,30.0,153.0,1.0
277.0,10.0,18.0,-54.0,168.0,48.0,164.0,-15.0
269.0,-14.0,60.0,-68.0,154.0,57.0,146.0,-19.0
433.0,-35.0,52.0,-67.0,178.0,87.0,151.0,1.0
499.0,-26.0,79.0,-30.0,171.0,103.0,172.0,-3.0
651.0,-15.0,272.0,-18.0,123.0,62.0,143.0,18.0
1345.0,31.0,716.0,-5.0,157.0,56.0,141.0,22.0
973.0,11.0,775.0,-10.0,180.0,48.0,141.0,12.0
315.0,-24.0,145.0,-37.0,171.0,25.0,132.0,27.0
85.0,-24.0,-306.0,-46.0,157.0,10.0,151.0,21.0
-66.0,17.0,-478.0,-77.0,167.0,43.0,166.0,26.0
193.0,46.0,-306.0,-92.0,188.0,51.0,171.0,28.0
184.0,-20.0,15.0,-72.0,174.0,24.0,144.0,21.0
275.0,-107.0,186.0,-35.0,188.0,15.0,147.0,14.0
151.0,-65.0,455.0,19.0,175.0,4.0,148.0,32.0
-141.0,3.0,964.0,51.0,179.0,3.0,149.0,15.0
-428.0,13.0,1041.0,64.0,178.0,-14.0,132.0,-18.0
-844.0,-15.0,410.0,69.0,166.0,13.0,85.0,14.0
-836.0,29.0,-74.0,51.0,142.0,-18.0,81.0,16.0
-730.0,66.0,-377.0,20.0,96.0,-27.0,74.0,-7.0
-995.0,46.0,-247.0,2.0,94.0,-6.0,46.0,-36.0
-676.0,41.0,-28.0,28.0,64.0,-35.0,26.0,-40.0
107.0,-10.0,374.0,32.0,44.0,-47.0,3.0,-33.0
187.0,12.0,957.0,-23.0,20.0,-67.0,-27.0,-51.0
98.0,30.0,1379.0,-14.0,-3.0,-42.0,-37.0,-43.0
162.0,55.0,1989.0,-5.0,-19.0,-42.0,-42.0,-56.0
318.0,50.0,1989.0,-17.0,-89.0,-42.0,-75.0,-59.0
387.0,-21.0,1314.0,-28.0,-113.0,-14.0,-75.0,-25.0
538.0,-86.0,760.0,15.0,-110.0,-4.0,-69.0,-13.0
778.0,-95.0,29.0,16.0,-129.0,-9.0,-102.0,10.0
790.0,41.0,-1666.0,-37.0,-129.0,-26.0,-98.0,7.0
586.0,103.0,-2889.0,4.0,-145.0,-20.0,-94.0,-40.0
228.0,65.0,-1947.0,12.0,-195.0,-39.0,-125.0,-73.0
-109.0,-3.0,-678.0,-22.0,-195.0,-32.0,-133.0,-98.0
-337.0,18.0,-696.0,-56.0,-217.0,-49.0,-138.0,-102.0
-295.0,-3.0,-1093.0,-76.0,-190.0,-47.0,-156.0,-83.0
38.0,-76.0,-1419.0,-103.0,-146.0,-29.0,-196.0,-76.0
713.0,-28.0,-1223.0,-109.0,-153.0,-41.0,-194.0,-71.0
1743.0,-14.0,-247.0,-77.0,-133.0,-33.0,-181.0,-69.0
2013.0,-85.0,480.0,-92.0,-136.0,-51.0,-210.0,-50.0
870.0,-112.0,663.0,-149.0,-99.0,-23.0,-203.0,-67.0
-228.0,-44.0,190.0,-143.0,-62.0,-11.0,-208.0,-71.0
-1196.0,-80.0,801.0,-127.0,-22.0,-35.0,-219.0,-24.0
-1604.0,-55.0,1824.0,-148.0,-17.0,-25.0,-213.0,-35.0
-1300.0,6.0,891.0,-141.0,-13.0,-42.0,-196.0,-27.0
-1162.0,6.0,-515.0,-91.0,32.0,-28.0,-197.0,-35.0
-1088.0,34.0,-1171.0,-19.0,89.0,-11.0,-166.0,-23.0
-1365.0,56.0,-1492.0,-35.0,139.0,-30.0,-147.0,10.0
-1296.0,-27.0,-1084.0,-33.0,119.0,-45.0,-167.0,9.0
-869.0,-45.0,-669.0,39.0,108.0,-56.0,-136.0,30.0
-567.0,34.0,-487.0,55.0,128.0,-61.0,-128.0,7.0
-266.0,-10.0,256.0,56.0,169.0,-54.0,-112.0,3.0
-63.0,67.0,526.0,75.0,235.0,-44.0,-81.0,13.0
393.0,99.0,402.0,116.0,296.0,-20.0,-98.0,46.0
920.0,37.0,363.0,90.0,314.0,-26.0,-77.0,63.0
1612.0,25.0,741.0,51.0,320.0,-22.0,-61.0,76.0
1950.0,49.0,1184.0,-5.0,358.0,13.0,-35.0,122.0
