4000.0,173.0,-99.0,-141.0,856.0,9.0,-137.0,-242.0
1897.0,83.0,-132.0,-162.0,790.0,8.0,-176.0,-153.0
-86.0,-5.0,-102.0,-167.0,692.0,-22.0,-163.0,-181.0
-445.0,-127.0,-95.0,-181.0,706.0,-48.0,-154.0,-142.0
-1130.0,-113.0,-92.0,-175.0,737.0,-86.0,-159.0,-142.0
-1271.0,-52.0,-95.0,-180.0,792.0,-3.0,-180.0,-168.0
-1670.0,-34.0,-96.0,-189.0,874.0,37.0,-182.0,-166.0
-2517.0,-16.0,-94.0,-183.0,944.0,30.0,-176.0,-129.0
-4000.0,-68.0,-101.0,-186.0,947.0,54.0,-171.0,-116.0
-4000.0,-52.0,-95.0,-198.0,896.0,78.0,-167.0,-90.0
-2725.0,5.0,-83.0,-167.0,888.0,127.0,-139.0,-29.0
-960.0,114.0,-67.0,-167.0,837.0,118.0,-125.0,-12.0
1541.0,114.0,-78.0,-130.0,815.0,87.0,-97.0,-40.0
2353.0,-51.0,-43.0,-122.0,794.0,49.0,-82.0,-100.0
1701.0,-182.0,-30.0,-106.0,766.0,69.0,-60.0,-101.0
408.0,-234.0,-26.0,-63.0,748.0,79.0,-22.0,13.0
-404.0,-190.0,20.0,-71.0,701.0,90.0,-28.0,228.0
-2374.0,-149.0,10.0,-34.0,672.0,109.0,-2.0,332.0
-3478.0,-199.0,12.0,-15.0,641.0,93.0,0.0,225.0
-946.0,-188.0,24.0,0.0,641.0,123.0,31.0,137.0
1108.0,-121.0,37.0,13.0,621.0,122.0,41.0,31.0
2015.0,-99.0,42.0,44.0,562.0,115.0,44.0,-79.0
2396.0,-129.0,53.0,55.0,480.0,142.0,90.0,-215.0
1755.0,-181.0,77.0,59.0,440.0,158.0,80.0,-492.0
986.0,-161.0,83.0,93.0,415.0,220.0,103.0,-419.0
296.0,-59.0,81.0,66.0,367.0,250.0,124.0,99.0
-545.0,63.0,110.0,84.0,328.0,219.0,120.0,184.0
-889.0,163.0,95.0,98.0,332.0,169.0,113.0,18.0
-317.0,294.0,80.0,96.0,360.0,145.0,131.0,190.0
-527.0,406.0,89.0,90.0,326.0,142.0,137.0,199.0
-1560.0,412.0,69.0,77.0,310.0,135.0,113.0,193.0
-1261.0,355.0,68.0,69.0,261.0,165.0,85.0,196.0
-309.0,170.0,65.0,29.0,227.0,208.0,90.0,145.0
361.0,3.0,65.0,42.0,176.0,237.0,81.0,190.0
1254.0,-68.0,65.0,47.0,85.0,290.0,78.0,247.0
1637.0,-65.0,54.0,51.0,15.0,271.0,97.0,383.0
1572.0,-14.0,33.0,42.0,-4.0,243.0,79.0,408.0
979.0,-45.0,25.0,34.0,34.0,216.0,81.0,334.0
-109.0,-44.0,42.0,27.0,14.0,152.0,61.0,239.0
-348.0,-37.0,36.0,12.0,-67.0,143.0,53.0,68.0
-19.0,18.0,14.0,2.0,-140.0,137.0,23.0,-10.0
382.0,34.0,3.0,-38.0,-160.0,172.0,16.0,-215.0
511.0,-36.0,13.0,-36.0,-151.0,111.0,18.0,-480.0
20.0,-59.0,-9.0,-32.0,-118.0,115.0,12.0,-350.0
-120.0,-139.0,8.0,2.0,-66.0,88.0,21.0,30.0
-164.0,-138.0,18.0,-3.0,-69.0,-17.0,-11.0,44.0
-331.0,-106.0,-6.0,-30.0,-132.0,10.0,-12.0,11.0
-669.0,-160.0,16.0,-39.0,-185.0,-13.0,-17.0,65.0
-1087.0,-193.0,-9.0,-34.0,-234.0,-56.0,2.0,7.0
-706.0,-179.0,-8.0,-32.0,-239.0,-76.0,3.0,66.0
-282.0,-114.0,-16.0,-55.0,-193.0,-45.0,24.0,13.0
-100.0,-31.0,-18.0,-18.0,-199.0,56.0,17.0,35.0
160.0,30.0,-32.0,-5.0,-201.0,26.0,17.0,12.0
-75.0,117.0,-30.0,3.0,-155.0,-3.0,73.0,-7.0
-372.0,260.0,-6.0,15.0,-99.0,17.0,62.0,-18.0
-449.0,321.0,-17.0,-2.0,-46.0,-25.0,40.0,-105.0
-443.0,263.0,10.0,6.0,-26.0,-26.0,65.0,-82.0
-350.0,194.0,-5.0,-19.0,-40.0,-46.0,86.0,-114.0
-277.0,148.0,-5.0,4.0,-53.0,-28.0,84.0,-100.0
-185.0,95.0,24.0,40.0,-96.0,-20.0,107.0,-97.0
-85.0,77.0,16.0,34.0,-102.0,-32.0,105.0,-129.0
18.0,79.0,28.0,42.0,-155.0,-49.0,116.0,-94.0
68.0,38.0,24.0,49.0,-218.0,-68.0,131.0,-81.0
99.0,19.0,15.0,73.0,-221.0,-75.0,141.0,-140.0
72.0,50.0,26.0,74.0,-278.0,-110.0,124.0,-134.0
114.0,78.0,20.0,39.0,-295.0,-109.0,90.0,-196.0
204.0,65.0,1.0,61.0,-277.0,-135.0,95.0,-240.0
216.0,63.0,16.0,91.0,-269.0,-110.0,88.0,-215.0
174.0,52.0,21.0,66.0,-263.0,-157.0,64.0,-274.0
-345.0,43.0,-3.0,16.0,-259.0,-162.0,40.0,-297.0
-1031.0,69.0,-10.0,-34.0,-278.0,-156.0,31.0,-334.0
-1064.0,43.0,-23.0,-27.0,-295.0,-213.0,36.0,-301.0
-741.0,-3.0,-24.0,-9.0,-333.0,-186.0,47.0,-273.0
180.0,9.0,-22.0,-36.0,-354.0,-214.0,16.0,-262.0
1189.0,-21.0,-61.0,-70.0,-360.0,-190.0,-9.0,-229.0
1559.0,-26.0,-50.0,-86.0,-385.0,-156.0,-24.0,-253.0
1743.0,9.0,-15.0,-62.0,-393.0,-154.0,-23.0,-235.0
1411.0,0.0,-23.0,-63.0,-437.0,-150.0,-26.0,-124.0
986.0,-32.0,-36.0,-61.0,-465.0,-155.0,-26.0,-23.0
790.0,-35.0,-36.0,-46.0,-459.0,-112.0,-2.0,-94.0
483.0,4.0,-24.0,-45.0,-478.0,-91.0,-26.0,-150.0
186.0,-19.0,5.0,-41.0,-484.0,-66.0,-33.0,-183.0
-78.0,-48.0,-31.0,-36.0,-494.0,-23.0,-30.0,-278.0
-266.0,-62.0,-59.0,-57.0,-486.0,-40.0,-21.0,-354.0
-575.0,-62.0,-15.0,-61.0,-441.0,-53.0,6.0,-484.0
-1170.0,11.0,-12.0,-72.0,-425.0,-14.0,-18.0,-462.0
-1640.0,60.0,-25.0,-100.0,-421.0,28.0,-23.0,-195.0
-974.0,87.0,-17.0,-76.0,-395.0,45.0,10.0,-137.0
-100.0,108.0,2.0,-65.0,-348.0,45.0,-2.0,-155.0
192.0,94.0,7.0,-72.0,-318.0,9.0,-8.0,-97.0
412.0,85.0,-16.0,-46.0,-321.0,-28.0,6.0,-71.0
18.0,60.0,-29.0,-42.0,-288.0,2.0,0.0,15.0
-31.0,31.0,-10.0,-14.0,-281.0,2.0,35.0,-46.0
635.0,50.0,-4.0,22.0,-288.0,-49.0,32.0,-91.0
994.0,34.0,-6.0,2.0,-264.0,-48.0,32.0,-85.0
885.0,-20.0,6.0,23.0,-211.0,-43.0,47.0,-146.0
313.0,-33.0,14.0,56.0,-191.0,23.0,31.0,-86.0
-238.0,-39.0,9.0,66.0,-156.0,250.0,54.0,-54.0
-750.0,-46.0,13.0,44.0,-113.0,329.0,67.0,-59.0
-974.0,-68.0,35.0,54.0,-142.0,271.0,95.0,-13.0
-560.0,-85.0,16.0,42.0,-139.0,219.0,58.0,-3.0
-283.0,-94.0,-21.0,-21.0,-134.0,103.0,42.0,-65.0
-292.0,-84.0,-9.0,-32.0,-136.0,-1.0,65.0,-105.0
-208.0,-69.0,-11.0,-45.0,-140.0,46.0,67.0,-100.0
-296.0,-69.0,-18.0,-46.0,-144.0,167.0,74.0,-87.0
-1130.0,-4.0,-23.0,-46.0,-109.0,189.0,17.0,-23.0
-2875.0,-12.0,-13.0,-34.0,-101.0,189.0,8.0,21.0
-2323.0,-73.0,-10.0,-41.0,-114.0,156.0,4.0,43.0
-33.0,-122.0,-19.0,-30.0,-130.0,172.0,-22.0,-4.0
660.0,-143.0,-36.0,-33.0,-131.0,156.0,-20.0,-13.0
1702.0,-143.0,-38.0,-54.0,-130.0,104.0,-22.0,44.0
2345.0,-144.0,-46.0,-41.0,-123.0,138.0,4.0,70.0
2052.0,-100.0,-47.0,-54.0,-128.0,129.0,11.0,82.0
1754.0,-48.0,-18.0,-55.0,-134.0,124.0,10.0,13.0
1254.0,-3.0,-5.0,-28.0,-131.0,143.0,25.0,67.0
769.0,47.0,5.0,-38.0,-150.0,152.0,64.0,174.0
334.0,90.0,26.0,-28.0,-138.0,150.0,61.0,216.0
82.0,92.0,20.0,-11.0,-93.0,115.0,58.0,239.0
-351.0,77.0,23.0,-26.0,-52.0,115.0,71.0,259.0
-457.0,63.0,11.0,16.0,-24.0,105.0,61.0,334.0
-388.0,52.0,-5.0,27.0,11.0,66.0,61.0,361.0
-285.0,60.0,0.0,0.0,14.0,83.0,35.0,387.0
-569.0,35.0,8.0,40.0,-31.0,78.0,40.0,473.0
-841.0,65.0,15.0,55.0,-16.0,41.0,41.0,489.0
-346.0,93.0,-7.0,34.0,18.0,30.0,41.0,503.0
137.0,62.0,2.0,4.0,6.0,5.0,65.0,544.0
199.0,49.0,15.0,13.0,31.0,16.0,44.0,556.0
-93.0,41.0,14.0,26.0,44.0,12.0,20.0,569.0
-354.0,54.0,7.0,7.0,18.0,13.0,16.0,580.0
-392.0,16.0,7.0,-16.0,37.0,-6.0,9.0,595.0
-361.0,-29.0,24.0,-18.0,58.0,-33.0,17.0,621.0
-220.0,-8.0,33.0,7.0,106.0,-7.0,28.0,645.0
53.0,-20.0,9.0,16.0,112.0,-18.0,22.0,654.0
190.0,-8.0,-9.0,7.0,79.0,15.0,5.0,662.0
-1105.0,-32.0,4.0,-15.0,28.0,36.0,-6.0,686.0
-3003.0,-72.0,-15.0,15.0,-51.0,-15.0,-20.0,707.0
-1885.0,-36.0,-18.0,-4.0,-111.0,-2.0,-48.0,747.0
273.0,-8.0,-2.0,-38.0,-188.0,-1.0,-33.0,760.0
1743.0,-6.0,-13.0,-46.0,-222.0,-12.0,-37.0,751.0
2675.0,-3.0,-26.0,-40.0,-248.0,18.0,-45.0,731.0
2287.0,-24.0,-3.0,-39.0,-276.0,-15.0,-62.0,686.0
1810.0,-64.0,-7.0,-53.0,-299.0,-37.0,-44.0,692.0
855.0,-52.0,17.0,-13.0,-351.0,-81.0,-35.0,731.0
236.0,-24.0,12.0,-15.0,-380.0,-139.0,-19.0,741.0
-118.0,7.0,-8.0,-14.0,-421.0,-73.0,4.0,735.0
-448.0,38.0,7.0,0.0,-440.0,-68.0,-27.0,719.0
-589.0,98.0,-6.0,-17.0,-474.0,-51.0,-32.0,713.0
-625.0,80.0,-7.0,-26.0,-514.0,-3.0,-28.0,677.0
-424.0,64.0,-20.0,-42.0,-523.0,-4.0,-24.0,586.0
-412.0,136.0,-28.0,-44.0,-522.0,-10.0,-23.0,536.0
-441.0,159.0,-29.0,-42.0,-506.0,-63.0,-30.0,531.0
-664.0,160.0,-54.0,-51.0,-528.0,-58.0,-44.0,547.0
-569.0,146.0,-36.0,-48.0,-547.0,-42.0,-41.0,487.0
-310.0,62.0,-47.0,-28.0,-528.0,-13.0,-27.0,426.0
-323.0,-51.0,-45.0,-55.0,-523.0,-19.0,-26.0,417.0
-453.0,-108.0,-39.0,-56.0,-486.0,-73.0,5.0,344.0
-518.0,-117.0,-41.0,-49.0,-425.0,-43.0,2.0,344.0
-416.0,-97.0,-27.0,-57.0,-416.0,6.0,13.0,318.0
-208.0,-56.0,1.0,-37.0,-417.0,46.0,17.0,290.0
-24.0,-70.0,-9.0,-34.0,-395.0,70.0,29.0,228.0
116.0,-74.0,-12.0,-18.0,-395.0,158.0,56.0,174.0
163.0,-31.0,3.0,-30.0,-411.0,184.0,44.0,132.0
122.0,16.0,10.0,0.0,-378.0,81.0,75.0,75.0
186.0,34.0,43.0,31.0,-327.0,39.0,107.0,108.0
204.0,54.0,26.0,20.0,-321.0,34.0,114.0,26.0
305.0,30.0,26.0,23.0,-295.0,15.0,111.0,-46.0
287.0,-21.0,21.0,30.0,-288.0,13.0,106.0,-95.0
228.0,-59.0,23.0,45.0,-315.0,-24.0,113.0,-146.0
267.0,-60.0,17.0,12.0,-278.0,-54.0,113.0,-135.0
214.0,-72.0,-22.0,-10.0,-272.0,-15.0,98.0,-139.0
195.0,-86.0,-7.0,-15.0,-263.0,-56.0,87.0,-66.0
169.0,-55.0,-31.0,-19.0,-251.0,-27.0,52.0,-175.0
180.0,-19.0,-33.0,-15.0,-215.0,0.0,53.0,-339.0
155.0,1.0,-25.0,-6.0,-160.0,-59.0,58.0,-362.0
101.0,-48.0,-21.0,8.0,-152.0,-11.0,45.0,-512.0
98.0,-17.0,-10.0,11.0,-118.0,8.0,73.0,-562.0
82.0,11.0,16.0,9.0,-84.0,0.0,28.0,-602.0
44.0,4.0,19.0,-9.0,-37.0,-11.0,38.0,-729.0
4.0,29.0,6.0,-2.0,-9.0,-22.0,54.0,-671.0
34.0,10.0,11.0,-21.0,23.0,-19.0,33.0,-527.0
34.0,3.0,2.0,-6.0,88.0,-40.0,20.0,-572.0
14.0,-33.0,-4.0,20.0,119.0,-36.0,2.0,-602.0
24.0,-59.0,-4.0,11.0,162.0,-13.0,27.0,-557.0
-5.0,-14.0,-9.0,4.0,195.0,-20.0,0.0,-590.0
-1.0,-90.0,-11.0,-10.0,218.0,-24.0,-22.0,-553.0
-32.0,-188.0,1.0,-5.0,226.0,-12.0,-20.0,-562.0
-47.0,-73.0,-7.0,-2.0,248.0,-3.0,-2.0,-563.0
-25.0,-47.0,-5.0,0.0,235.0,22.0,29.0,-562.0
-52.0,-57.0,-4.0,-1.0,248.0,-16.0,28.0,-581.0
-29.0,125.0,15.0,-11.0,318.0,-3.0,6.0,-577.0
-1.0,328.0,20.0,-17.0,318.0,40.0,-7.0,-572.0
-15.0,355.0,3.0,-17.0,348.0,21.0,20.0,-555.0
-49.0,120.0,19.0,-6.0,375.0,29.0,18.0,-543.0
-75.0,-23.0,-1.0,-35.0,438.0,23.0,-19.0,-539.0
-69.0,-40.0,18.0,-18.0,480.0,49.0,-11.0,-534.0
-55.0,-47.0,1.0,-14.0,522.0,50.0,2.0,-492.0
-70.0,16.0,-11.0,-38.0,532.0,42.0,-20.0,-480.0
-99.0,112.0,6.0,-35.0,503.0,82.0,-33.0,-455.0
-89.0,85.0,-4.0,-38.0,467.0,110.0,-43.0,-447.0
-105.0,43.0,-11.0,-28.0,428.0,130.0,-26.0,-431.0
-101.0,121.0,-22.0,-59.0,415.0,134.0,-13.0,-414.0
-52.0,214.0,-12.0,-55.0,393.0,124.0,-65.0,-366.0
-18.0,276.0,-17.0,-81.0,428.0,91.0,-53.0,-332.0
-10.0,221.0,-25.0,-55.0,428.0,68.0,-19.0,-301.0
-26.0,167.0,-29.0,-10.0,432.0,48.0,-18.0,-288.0
-31.0,-91.0,-34.0,-40.0,444.0,42.0,-30.0,-291.0
-33.0,-222.0,-30.0,-38.0,440.0,6.0,-28.0,-247.0
-34.0,-214.0,8.0,-44.0,473.0,63.0,14.0,-229.0
-44.0,-342.0,-1.0,-32.0,468.0,203.0,6.0,-217.0
-40.0,-418.0,-9.0,-42.0,509.0,194.0,-2.0,-226.0
-33.0,-402.0,-3.0,-9.0,531.0,142.0,16.0,-248.0
-25.0,-269.0,2.0,10.0,505.0,119.0,31.0,-229.0
-29.0,-175.0,24.0,-9.0,515.0,67.0,38.0,-214.0
-37.0,-147.0,3.0,8.0,505.0,102.0,7.0,-199.0
-18.0,-152.0,-6.0,-11.0,513.0,170.0,46.0,-232.0
-2.0,162.0,4.0,20.0,542.0,152.0,39.0,-189.0
21.0,412.0,2.0,7.0,528.0,144.0,25.0,-14.0
4.0,335.0,12.0,-10.0,562.0,124.0,48.0,-37.0
-11.0,304.0,-8.0,-6.0,586.0,138.0,36.0,-147.0
16.0,263.0,-23.0,-9.0,622.0,151.0,71.0,-108.0
12.0,221.0,11.0,-20.0,778.0,131.0,85.0,-76.0
-19.0,175.0,18.0,-24.0,1071.0,191.0,109.0,-50.0
-41.0,139.0,28.0,-3.0,1409.0,180.0,87.0,-59.0
-6.0,116.0,20.0,-11.0,1694.0,160.0,68.0,-60.0
-18.0,103.0,11.0,11.0,1865.0,172.0,91.0,-33.0
-44.0,69.0,24.0,-13.0,1971.0,145.0,59.0,-50.0
-46.0,89.0,8.0,25.0,1930.0,183.0,47.0,-40.0
-49.0,70.0,-1.0,25.0,1787.0,183.0,82.0,-35.0
0.0,-62.0,-5.0,-16.0,1639.0,167.0,70.0,-19.0
11.0,-95.0,-25.0,-22.0,1547.0,156.0,58.0,-11.0
15.0,-93.0,-13.0,-41.0,1656.0,191.0,40.0,-10.0
-1.0,-216.0,-25.0,-2.0,1800.0,183.0,25.0,11.0
-4.0,-242.0,-14.0,-36.0,1800.0,189.0,30.0,33.0
17.0,-125.0,0.0,-44.0,1666.0,213.0,33.0,38.0
11.0,-49.0,-16.0,-32.0,1531.0,217.0,31.0,24.0
39.0,28.0,-9.0,-37.0,1417.0,225.0,32.0,17.0
32.0,-78.0,-30.0,-23.0,1247.0,209.0,35.0,2.0
-23.0,-318.0,-21.0,-21.0,1124.0,185.0,8.0,-48.0
-29.0,-227.0,-18.0,-13.0,1077.0,115.0,35.0,-66.0
-44.0,-163.0,7.0,-22.0,1018.0,87.0,38.0,-5.0
-44.0,-288.0,9.0,-41.0,961.0,89.0,6.0,77.0
-49.0,-220.0,-36.0,-57.0,882.0,83.0,22.0,275.0
-23.0,-54.0,-6.0,-39.0,758.0,139.0,29.0,519.0
18.0,-28.0,-2.0,-21.0,570.0,170.0,44.0,522.0
14.0,-28.0,-11.0,-9.0,466.0,174.0,32.0,426.0
16.0,60.0,-10.0,-37.0,383.0,148.0,37.0,288.0
3.0,119.0,-36.0,-23.0,320.0,90.0,36.0,239.0
5.0,328.0,-22.0,-18.0,253.0,103.0,44.0,187.0
27.0,430.0,-20.0,-54.0,160.0,81.0,38.0,-138.0
15.0,412.0,15.0,-25.0,58.0,50.0,25.0,-417.0
-31.0,485.0,0.0,-17.0,-38.0,5.0,35.0,-409.0
-58.0,615.0,-23.0,-29.0,-61.0,-37.0,4.0,-247.0
-49.0,607.0,-3.0,-18.0,-52.0,-58.0,34.0,-327.0
-13.0,485.0,-24.0,0.0,-5.0,-95.0,41.0,-222.0
-10.0,290.0,-10.0,-21.0,-5.0,-93.0,25.0,-40.0
-53.0,-30.0,-6.0,-6.0,-36.0,-56.0,41.0,116.0
-102.0,-73.0,-10.0,7.0,-73.0,16.0,29.0,155.0
-119.0,-132.0,-2.0,-16.0,-105.0,3.0,22.0,108.0
-66.0,-546.0,-3.0,-15.0,-111.0,-22.0,21.0,206.0
47.0,-937.0,8.0,-26.0,-147.0,-10.0,22.0,128.0
132.0,-765.0,20.0,11.0,-160.0,-2.0,17.0,144.0
150.0,-444.0,26.0,4.0,-160.0,-1.0,24.0,107.0
98.0,-327.0,15.0,-10.0,-99.0,-20.0,19.0,131.0
45.0,-379.0,14.0,-9.0,-66.0,-22.0,35.0,165.0
18.0,-134.0,9.0,-7.0,-85.0,-16.0,36.0,189.0
17.0,-38.0,-8.0,-28.0,-90.0,16.0,-1.0,213.0
82.0,-300.0,-1.0,-40.0,-128.0,59.0,10.0,196.0
89.0,182.0,-1.0,1.0,-98.0,62.0,20.0,218.0
32.0,355.0,-5.0,-37.0,-67.0,8.0,18.0,165.0
-16.0,12.0,-25.0,-36.0,-153.0,-33.0,3.0,177.0
-78.0,-62.0,-17.0,-19.0,-261.0,-44.0,2.0,177.0
-95.0,-151.0,-11.0,-12.0,-364.0,-48.0,2.0,142.0
-32.0,-71.0,-7.0,-20.0,-446.0,-58.0,-4.0,138.0
-3.0,-7.0,1.0,-12.0,-486.0,-47.0,10.0,126.0
53.0,489.0,-19.0,4.0,-556.0,-15.0,-10.0,119.0
68.0,1518.0,-14.0,-12.0,-621.0,29.0,12.0,148.0
-66.0,1877.0,-21.0,-19.0,-653.0,58.0,22.0,135.0
-185.0,1292.0,-15.0,-15.0,-681.0,48.0,16.0,174.0
-164.0,181.0,-6.0,16.0,-681.0,10.0,31.0,172.0
-88.0,-575.0,-12.0,12.0,-712.0,-12.0,17.0,170.0
-21.0,-662.0,-3.0,-7.0,-728.0,-34.0,14.0,227.0
25.0,-413.0,-18.0,-17.0,-681.0,-51.0,6.0,237.0
-35.0,-352.0,-12.0,-10.0,-714.0,5.0,24.0,261.0
-87.0,4.0,-8.0,4.0,-723.0,-18.0,26.0,267.0
-42.0,729.0,-12.0,-9.0,-742.0,-28.0,34.0,314.0
74.0,1136.0,-5.0,1.0,-782.0,19.0,58.0,267.0
114.0,998.0,3.0,15.0,-742.0,19.0,43.0,230.0
69.0,305.0,0.0,9.0,-775.0,-2.0,61.0,206.0
-41.0,233.0,-24.0,6.0,-785.0,-16.0,23.0,137.0
-184.0,168.0,-38.0,12.0,-738.0,-3.0,37.0,135.0
-184.0,-1690.0,-20.0,1.0,-751.0,-3.0,41.0,108.0
-48.0,-3382.0,-22.0,17.0,-746.0,-42.0,22.0,184.0
159.0,-2951.0,-10.0,6.0,-742.0,-26.0,19.0,208.0
287.0,-2373.0,0.0,-6.0,-782.0,-8.0,-6.0,152.0
214.0,-2073.0,-5.0,-26.0,-797.0,-26.0,4.0,135.0
77.0,-1525.0,-3.0,-57.0,-812.0,4.0,1.0,98.0
9.0,-698.0,-14.0,-48.0,-812.0,-40.0,16.0,99.0
126.0,282.0,-2.0,-39.0,-803.0,-68.0,28.0,74.0
239.0,737.0,-20.0,-39.0,-847.0,-43.0,11.0,66.0
104.0,402.0,-9.0,-49.0,-857.0,-39.0,4.0,67.0
21.0,109.0,-9.0,-23.0,-818.0,-48.0,9.0,47.0
-24.0,354.0,-25.0,-9.0,-812.0,-62.0,-4.0,141.0
-30.0,811.0,-25.0,-4.0,-803.0,-55.0,12.0,304.0
15.0,1266.0,-9.0,-22.0,-751.0,-82.0,49.0,308.0
-52.0,1488.0,17.0,-2.0,-751.0,-152.0,61.0,168.0
-190.0,1583.0,-14.0,10.0,-812.0,-224.0,65.0,74.0
-238.0,1252.0,1.0,-5.0,-908.0,-101.0,43.0,7.0
-155.0,966.0,-10.0,-11.0,-968.0,8.0,23.0,-40.0
-150.0,959.0,-40.0,-46.0,-1007.0,-43.0,-1.0,-127.0
-209.0,705.0,-41.0,-43.0,-1007.0,-52.0,-16.0,-158.0
-286.0,589.0,-36.0,-67.0,-993.0,-108.0,-27.0,-44.0
-331.0,640.0,-31.0,-52.0,-977.0,-159.0,-41.0,47.0
-213.0,268.0,-40.0,-32.0,-912.0,-247.0,-49.0,176.0
-60.0,64.0,-38.0,-42.0,-853.0,-221.0,-17.0,397.0
-19.0,-96.0,-35.0,-28.0,-855.0,-91.0,-13.0,621.0
-36.0,-375.0,-11.0,-32.0,-780.0,-43.0,-12.0,600.0
-40.0,-640.0,14.0,-30.0,-744.0,62.0,24.0,341.0
-28.0,-996.0,2.0,-41.0,-681.0,46.0,16.0,252.0
-98.0,-985.0,14.0,-48.0,-539.0,-17.0,13.0,165.0
-162.0,-1186.0,17.0,-6.0,-490.0,1.0,8.0,-33.0
-244.0,-492.0,-13.0,-14.0,-448.0,-75.0,19.0,-330.0
-146.0,158.0,-9.0,9.0,-374.0,-102.0,2.0,-788.0
325.0,-151.0,4.0,34.0,-383.0,-127.0,23.0,-791.0
595.0,-73.0,28.0,38.0,-282.0,-238.0,66.0,-253.0
342.0,93.0,41.0,63.0,-168.0,-289.0,59.0,91.0
160.0,420.0,38.0,33.0,-147.0,-297.0,62.0,116.0
322.0,420.0,46.0,43.0,-139.0,-145.0,48.0,206.0
489.0,331.0,21.0,43.0,-105.0,-39.0,59.0,203.0
538.0,471.0,26.0,26.0,-33.0,-85.0,61.0,190.0
451.0,556.0,19.0,38.0,23.0,-52.0,82.0,190.0
306.0,598.0,15.0,26.0,53.0,-54.0,65.0,112.0
38.0,837.0,38.0,22.0,66.0,-50.0,51.0,28.0
-338.0,967.0,32.0,42.0,94.0,-74.0,58.0,-104.0
-392.0,533.0,15.0,27.0,106.0,-92.0,30.0,-75.0
-331.0,261.0,21.0,19.0,137.0,-87.0,51.0,36.0
-824.0,-55.0,14.0,36.0,213.0,-76.0,52.0,73.0
-1283.0,-318.0,2.0,26.0,245.0,-69.0,56.0,27.0
-870.0,-139.0,-2.0,2.0,275.0,-77.0,53.0,50.0
-497.0,288.0,-5.0,-14.0,279.0,-109.0,26.0,67.0
-816.0,135.0,-22.0,-44.0,253.0,-163.0,18.0,75.0
204.0,-1008.0,-7.0,-56.0,270.0,-125.0,29.0,33.0
1384.0,-1472.0,5.0,-65.0,281.0,-107.0,28.0,69.0
1226.0,-601.0,-13.0,-109.0,275.0,-45.0,29.0,165.0
1384.0,-83.0,-4.0,-92.0,346.0,-16.0,35.0,137.0
1804.0,-36.0,-16.0,-74.0,393.0,2.0,17.0,105.0
2728.0,41.0,-6.0,-59.0,431.0,46.0,34.0,87.0
2597.0,-201.0,3.0,-19.0,480.0,31.0,38.0,107.0
1384.0,-303.0,3.0,-15.0,509.0,97.0,39.0,77.0
537.0,-354.0,21.0,0.0,570.0,74.0,27.0,213.0
-616.0,-165.0,3.0,6.0,570.0,50.0,20.0,290.0
-1261.0,-20.0,0.0,-16.0,570.0,24.0,36.0,196.0
-1762.0,15.0,-18.0,1.0,596.0,-19.0,-7.0,210.0
-2192.0,-28.0,-25.0,-3.0,621.0,-21.0,16.0,177.0
-2348.0,-310.0,3.0,-16.0,664.0,-28.0,22.0,174.0
-3180.0,-208.0,-36.0,5.0,618.0,-19.0,38.0,60.0
-4000.0,-18.0,-12.0,28.0,590.0,-8.0,60.0,-315.0
-4000.0,27.0,23.0,0.0,575.0,27.0,24.0,-386.0
-1682.0,81.0,-1.0,-24.0,562.0,34.0,33.0,-46.0
2406.0,109.0,-28.0,7.0,596.0,41.0,34.0,108.0
4000.0,38.0,-20.0,-13.0,562.0,56.0,31.0,106.0
4000.0,124.0,10.0,-25.0,505.0,78.0,14.0,165.0
2793.0,269.0,-9.0,-21.0,521.0,76.0,20.0,131.0
1677.0,459.0,-21.0,-21.0,519.0,73.0,38.0,160.0
436.0,587.0,-12.0,10.0,497.0,97.0,42.0,203.0
147.0,460.0,-10.0,4.0,532.0,110.0,66.0,308.0
-351.0,203.0,-12.0,25.0,505.0,126.0,52.0,329.0
-426.0,-360.0,-20.0,9.0,476.0,123.0,50.0,202.0
-156.0,-872.0,-12.0,-9.0,448.0,115.0,46.0,163.0
18.0,-901.0,13.0,-1.0,460.0,105.0,32.0,35.0
318.0,14.0,-26.0,-33.0,448.0,93.0,38.0,-15.0
43.0,767.0,-50.0,-34.0,444.0,61.0,29.0,-129.0
-620.0,485.0,-11.0,-83.0,428.0,29.0,23.0,-267.0
-2584.0,347.0,-38.0,-75.0,367.0,38.0,-14.0,-136.0
-4000.0,27.0,-50.0,-52.0,314.0,62.0,-43.0,66.0
-2693.0,-468.0,-32.0,-75.0,264.0,104.0,-27.0,22.0
1515.0,-1025.0,-23.0,-63.0,224.0,119.0,-20.0,-33.0
3562.0,-1472.0,-2.0,-40.0,212.0,95.0,-46.0,-52.0
4000.0,-910.0,-25.0,-40.0,224.0,97.0,-63.0,-76.0
3780.0,2.0,-13.0,-35.0,265.0,90.0,-39.0,14.0
1189.0,201.0,-22.0,-13.0,302.0,81.0,-19.0,95.0
530.0,69.0,-22.0,-22.0,301.0,61.0,4.0,221.0
275.0,282.0,-6.0,-6.0,285.0,72.0,-14.0,271.0
367.0,189.0,-5.0,-8.0,300.0,83.0,-7.0,243.0
825.0,232.0,-3.0,-26.0,325.0,47.0,14.0,51.0
986.0,412.0,-23.0,-13.0,328.0,54.0,16.0,-35.0
452.0,443.0,10.0,15.0,290.0,50.0,26.0,-15.0
-479.0,380.0,6.0,16.0,255.0,36.0,17.0,-140.0
-1031.0,208.0,3.0,22.0,233.0,104.0,7.0,-180.0
-942.0,338.0,19.0,-14.0,147.0,163.0,13.0,-131.0
-1105.0,334.0,10.0,-14.0,128.0,126.0,22.0,-64.0
-1170.0,321.0,21.0,25.0,114.0,140.0,19.0,-45.0
-1155.0,263.0,-6.0,-9.0,44.0,162.0,13.0,-15.0
-2826.0,196.0,-14.0,9.0,34.0,183.0,20.0,62.0
-4000.0,144.0,-9.0,3.0,-7.0,211.0,2.0,68.0
-4000.0,56.0,-20.0,-21.0,14.0,81.0,10.0,-36.0
-4000.0,86.0,-32.0,-17.0,27.0,-20.0,13.0,-14.0
-3760.0,92.0,-25.0,-19.0,39.0,-22.0,8.0,-25.0
4000.0,95.0,-10.0,-12.0,41.0,25.0,3.0,-45.0
4000.0,28.0,-29.0,-28.0,-4.0,64.0,-22.0,-59.0
4000.0,-43.0,-22.0,-44.0,-34.0,51.0,-33.0,-116.0
4000.0,-79.0,-13.0,-28.0,-33.0,89.0,-51.0,-132.0
4000.0,-112.0,-4.0,-12.0,-20.0,118.0,-24.0,-222.0
1962.0,-127.0,-12.0,-9.0,-18.0,104.0,-21.0,-179.0
-1752.0,-158.0,-16.0,10.0,11.0,126.0,5.0,-118.0
-2582.0,-171.0,27.0,18.0,8.0,131.0,8.0,-105.0
-3411.0,-178.0,12.0,-9.0,-22.0,99.0,1.0,-85.0
-2348.0,-183.0,-22.0,-26.0,-26.0,126.0,4.0,-77.0
-3799.0,-154.0,-36.0,-36.0,-52.0,106.0,-20.0,-101.0
-4000.0,-69.0,-15.0,-49.0,-66.0,87.0,0.0,-86.0
-3901.0,13.0,24.0,-41.0,-52.0,111.0,48.0,-72.0
-1271.0,38.0,17.0,-23.0,-68.0,95.0,49.0,-96.0
798.0,67.0,20.0,-36.0,-69.0,119.0,38.0,-76.0
1897.0,103.0,40.0,-17.0,-13.0,115.0,74.0,-62.0
1767.0,152.0,40.0,-6.0,21.0,128.0,84.0,-77.0
1216.0,129.0,17.0,-3.0,25.0,115.0,88.0,-87.0
375.0,95.0,15.0,-10.0,52.0,93.0,78.0,-35.0
-844.0,162.0,3.0,-26.0,77.0,152.0,75.0,-25.0
-1522.0,200.0,6.0,-37.0,68.0,96.0,50.0,-53.0
-1670.0,229.0,12.0,-48.0,92.0,103.0,58.0,-51.0
-1495.0,273.0,-12.0,-22.0,75.0,105.0,84.0,-48.0
-1537.0,229.0,5.0,-25.0,8.0,91.0,71.0,-67.0
-1345.0,76.0,-1.0,-7.0,-34.0,134.0,71.0,-93.0
-2011.0,-27.0,27.0,6.0,-59.0,94.0,56.0,-105.0
-4000.0,-24.0,16.0,4.0,-31.0,73.0,51.0,-93.0
-4000.0,85.0,17.0,-17.0,-43.0,44.0,40.0,-86.0
-2505.0,157.0,-11.0,-53.0,-88.0,1.0,13.0,-104.0
2092.0,-9.0,-42.0,-38.0,-102.0,4.0,-15.0,-82.0
4000.0,-122.0,2.0,-46.0,-121.0,5.0,-11.0,-42.0
4000.0,-199.0,6.0,-33.0,-128.0,12.0,30.0,-46.0
4000.0,-218.0,-8.0,-13.0,-157.0,48.0,33.0,-101.0
3364.0,-188.0,5.0,-37.0,-130.0,84.0,37.0,-104.0
-148.0,-228.0,28.0,-24.0,-132.0,105.0,54.0,-97.0
-1552.0,-261.0,31.0,-4.0,-152.0,54.0,58.0,-121.0
-250.0,-280.0,0.0,8.0,-158.0,56.0,64.0,-116.0
680.0,-278.0,5.0,-2.0,-183.0,19.0,51.0,-126.0
1059.0,-295.0,14.0,14.0,-210.0,-31.0,45.0,-146.0
725.0,-244.0,-6.0,-7.0,-245.0,-45.0,38.0,-180.0
418.0,-188.0,-8.0,-23.0,-222.0,-75.0,45.0,-189.0
161.0,-112.0,-12.0,23.0,-225.0,-40.0,61.0,-189.0
79.0,-72.0,-30.0,1.0,-270.0,-6.0,50.0,-206.0
-212.0,-127.0,-25.0,-20.0,-274.0,-25.0,59.0,-232.0
-250.0,-154.0,-1.0,-20.0,-291.0,-32.0,44.0,-211.0
-106.0,-171.0,-29.0,-34.0,-314.0,-12.0,45.0,-232.0
-343.0,-136.0,-5.0,-21.0,-334.0,-2.0,56.0,-254.0
-1418.0,-66.0,24.0,4.0,-343.0,27.0,60.0,-254.0
-2643.0,-3.0,-1.0,-5.0,-371.0,46.0,50.0,-274.0
-2049.0,27.0,7.0,2.0,-364.0,41.0,45.0,-252.0
-873.0,21.0,9.0,8.0,-360.0,28.0,25.0,-262.0
36.0,55.0,-17.0,-15.0,-356.0,-37.0,19.0,-297.0
1376.0,150.0,-5.0,-8.0,-350.0,-51.0,32.0,-301.0
1807.0,142.0,6.0,-6.0,-352.0,9.0,41.0,-301.0
1181.0,91.0,6.0,11.0,-328.0,-11.0,76.0,-279.0
365.0,101.0,12.0,-7.0,-360.0,-32.0,54.0,-267.0
-71.0,103.0,-11.0,-16.0,-364.0,-47.0,-1.0,-282.0
-354.0,103.0,19.0,4.0,-356.0,-32.0,-2.0,-282.0
-457.0,116.0,-2.0,10.0,-352.0,-9.0,27.0,-234.0
-437.0,130.0,-12.0,12.0,-319.0,-48.0,13.0,-242.0
-1162.0,162.0,23.0,-2.0,-333.0,-38.0,13.0,-297.0
-2545.0,180.0,-8.0,-18.0,-321.0,-56.0,4.0,-292.0
-1950.0,111.0,-14.0,-16.0,-291.0,-68.0,-3.0,-260.0
18.0,34.0,-28.0,16.0,-278.0,-65.0,14.0,-276.0
954.0,26.0,-16.0,-22.0,-263.0,-69.0,-19.0,-356.0
1897.0,36.0,-3.0,-25.0,-201.0,-29.0,-8.0,-317.0
1625.0,30.0,-17.0,1.0,-156.0,-7.0,1.0,-194.0
725.0,30.0,-1.0,-6.0,-105.0,-35.0,-4.0,-204.0
-14.0,90.0,-15.0,-11.0,-75.0,2.0,-10.0,-207.0
-316.0,70.0,-50.0,-4.0,-87.0,88.0,6.0,-180.0
212.0,43.0,-26.0,10.0,-77.0,-57.0,19.0,-177.0
386.0,35.0,-38.0,-30.0,-70.0,-227.0,24.0,-153.0
-93.0,34.0,-28.0,-22.0,-16.0,-289.0,33.0,-120.0
-750.0,29.0,-17.0,-9.0,5.0,-378.0,17.0,-66.0
-625.0,-39.0,-25.0,-38.0,39.0,-310.0,21.0,-121.0
-1621.0,-50.0,-21.0,-38.0,119.0,-84.0,14.0,-163.0
-2418.0,-28.0,-36.0,-59.0,167.0,-75.0,10.0,-145.0
-300.0,-18.0,-20.0,-51.0,193.0,-120.0,10.0,-123.0
1281.0,7.0,-42.0,-61.0,188.0,-3.0,22.0,-124.0
1959.0,8.0,-40.0,-66.0,151.0,-39.0,36.0,-129.0
2663.0,-4.0,-28.0,-63.0,148.0,-58.0,28.0,-105.0
1822.0,40.0,-6.0,-38.0,167.0,-47.0,33.0,-87.0
954.0,98.0,11.0,-30.0,195.0,-66.0,32.0,-67.0
195.0,69.0,5.0,-36.0,223.0,-78.0,31.0,-109.0
-1201.0,83.0,-3.0,-31.0,212.0,-104.0,44.0,-117.0
-3034.0,125.0,-25.0,-41.0,220.0,-22.0,78.0,-124.0
-1950.0,116.0,13.0,-9.0,236.0,-1.0,93.0,-105.0
-160.0,138.0,23.0,10.0,285.0,-15.0,97.0,-109.0
-1799.0,110.0,21.0,-4.0,335.0,1.0,99.0,-122.0
-4000.0,78.0,11.0,-5.0,348.0,-7.0,73.0,-91.0
-4000.0,0.0,23.0,10.0,363.0,-3.0,50.0,-116.0
3884.0,-112.0,7.0,13.0,349.0,-3.0,59.0,-93.0
4000.0,-127.0,-1.0,19.0,342.0,1.0,73.0,-55.0
4000.0,-108.0,7.0,16.0,338.0,-20.0,86.0,-32.0
4000.0,-95.0,0.0,2.0,383.0,-19.0,87.0,-4.0
1948.0,-94.0,21.0,7.0,426.0,17.0,84.0,-11.0
1222.0,-110.0,7.0,19.0,450.0,23.0,103.0,15.0
-1170.0,-79.0,19.0,-9.0,402.0,53.0,78.0,35.0
-1682.0,-16.0,11.0,0.0,375.0,66.0,41.0,-16.0
-2773.0,45.0,23.0,0.0,383.0,64.0,20.0,-2.0
-2637.0,46.0,3.0,-24.0,373.0,48.0,37.0,42.0
-2985.0,27.0,0.0,-21.0,367.0,40.0,21.0,47.0
-2839.0,78.0,6.0,-27.0,328.0,102.0,-6.0,53.0
-1915.0,176.0,-34.0,-36.0,318.0,86.0,-2.0,70.0
-2049.0,262.0,3.0,-60.0,325.0,81.0,-16.0,86.0
-1670.0,251.0,-13.0,-49.0,318.0,118.0,9.0,119.0
-1392.0,152.0,1.0,-21.0,290.0,151.0,8.0,151.0
-1206.0,113.0,-11.0,-3.0,235.0,124.0,1.0,189.0
-1339.0,69.0,-30.0,4.0,206.0,137.0,5.0,218.0
530.0,-7.0,-20.0,18.0,212.0,183.0,1.0,202.0
1307.0,-14.0,-4.0,8.0,217.0,126.0,21.0,206.0
1671.0,-69.0,-3.0,7.0,212.0,114.0,-2.0,210.0
1569.0,-98.0,-36.0,14.0,180.0,38.0,24.0,210.0
509.0,-111.0,-36.0,-27.0,144.0,-51.0,5.0,228.0
543.0,-111.0,-23.0,-32.0,136.0,-43.0,-2.0,259.0
303.0,-97.0,-8.0,-45.0,119.0,40.0,-12.0,295.0
440.0,-153.0,-23.0,-44.0,104.0,149.0,-29.0,369.0
650.0,-150.0,-7.0,-13.0,56.0,246.0,-17.0,459.0
914.0,-76.0,11.0,-9.0,35.0,376.0,-8.0,499.0
955.0,-30.0,24.0,-13.0,38.0,347.0,5.0,491.0
627.0,-65.0,35.0,-21.0,52.0,244.0,-17.0,531.0
127.0,-108.0,18.0,-38.0,66.0,139.0,-12.0,576.0
-166.0,-107.0,1.0,-29.0,67.0,124.0,-11.0,576.0
-196.0,-106.0,0.0,4.0,67.0,144.0,-9.0,621.0
-372.0,-112.0,-21.0,12.0,32.0,110.0,-16.0,621.0
183.0,-93.0,-15.0,13.0,41.0,82.0,28.0,645.0
1051.0,-52.0,-29.0,17.0,52.0,61.0,35.0,671.0
986.0,-49.0,-36.0,25.0,47.0,71.0,48.0,680.0
358.0,-21.0,-25.0,18.0,34.0,76.0,49.0,731.0
260.0,-77.0,-39.0,-1.0,14.0,68.0,1.0,727.0
-544.0,-65.0,-17.0,-2.0,46.0,77.0,-4.0,745.0
-1296.0,-20.0,-3.0,-1.0,75.0,105.0,-10.0,758.0
-807.0,-42.0,-11.0,-4.0,83.0,51.0,-6.0,765.0
-539.0,-20.0,2.0,-9.0,41.0,16.0,-7.0,795.0
-297.0,-44.0,-14.0,-11.0,-2.0,20.0,-16.0,803.0
24.0,-55.0,-13.0,-29.0,-56.0,-2.0,-45.0,817.0
-41.0,-40.0,4.0,-23.0,-64.0,10.0,-48.0,825.0
-14.0,-7.0,-20.0,-6.0,-45.0,-21.0,-51.0,817.0
127.0,38.0,-17.0,-37.0,-105.0,-32.0,-88.0,825.0
177.0,63.0,-29.0,-25.0,-149.0,-57.0,-94.0,831.0
212.0,60.0,-21.0,-7.0,-183.0,-94.0,-84.0,870.0
9.0,111.0,0.0,-15.0,-218.0,-89.0,-81.0,860.0
-379.0,142.0,7.0,-17.0,-262.0,-102.0,-67.0,869.0
-316.0,117.0,23.0,-23.0,-261.0,-95.0,-69.0,850.0
10.0,109.0,27.0,-18.0,-291.0,-119.0,-84.0,825.0
51.0,79.0,15.0,-9.0,-349.0,-123.0,-70.0,831.0
28.0,72.0,-13.0,-32.0,-360.0,-137.0,-65.0,804.0
60.0,41.0,-8.0,-24.0,-418.0,-167.0,-42.0,798.0
-13.0,-20.0,8.0,-29.0,-459.0,-216.0,-25.0,795.0
31.0,-76.0,-5.0,-28.0,-490.0,-205.0,-27.0,795.0
56.0,-22.0,20.0,-3.0,-543.0,-146.0,6.0,760.0
16.0,-21.0,7.0,-32.0,-580.0,-149.0,23.0,731.0
49.0,-64.0,-18.0,-10.0,-677.0,-118.0,10.0,686.0
16.0,-52.0,-1.0,-29.0,-746.0,-109.0,9.0,660.0
80.0,-17.0,-37.0,-55.0,-785.0,-128.0,30.0,609.0
134.0,28.0,-35.0,-37.0,-812.0,-113.0,6.0,556.0
82.0,20.0,-21.0,-29.0,-827.0,-147.0,21.0,515.0
56.0,28.0,-14.0,-41.0,-855.0,-124.0,33.0,468.0
-30.0,-36.0,-7.0,-42.0,-857.0,-97.0,34.0,426.0
-82.0,-63.0,-17.0,-14.0,-846.0,-104.0,50.0,384.0
-47.0,0.0,-8.0,-22.0,-860.0,-98.0,40.0,369.0
8.0,59.0,9.0,-1.0,-877.0,-73.0,74.0,304.0
34.0,86.0,-12.0,-26.0,-877.0,-53.0,49.0,269.0
-25.0,56.0,-21.0,-42.0,-921.0,-59.0,54.0,221.0
-45.0,7.0,11.0,-33.0,-934.0,-36.0,104.0,176.0
-62.0,14.0,-2.0,-30.0,-913.0,-27.0,94.0,162.0
-66.0,41.0,-21.0,-24.0,-912.0,-27.0,107.0,106.0
-12.0,-82.0,-32.0,8.0,-883.0,-26.0,114.0,80.0
-15.0,-86.0,-12.0,-4.0,-863.0,-31.0,126.0,50.0
-11.0,87.0,-4.0,-9.0,-863.0,-35.0,143.0,14.0
19.0,114.0,2.0,10.0,-818.0,-30.0,131.0,-17.0
12.0,26.0,2.0,-11.0,-803.0,-40.0,130.0,-48.0
-7.0,-6.0,-2.0,-1.0,-751.0,-16.0,104.0,-105.0
-41.0,38.0,7.0,-3.0,-738.0,10.0,81.0,-156.0
-53.0,-64.0,3.0,-14.0,-686.0,13.0,84.0,-196.0
-48.0,-244.0,6.0,-26.0,-593.0,13.0,79.0,-232.0
-41.0,-110.0,8.0,-12.0,-549.0,13.0,77.0,-258.0
-18.0,91.0,24.0,-12.0,-508.0,29.0,64.0,-325.0
4.0,106.0,1.0,-42.0,-466.0,35.0,50.0,-391.0
31.0,126.0,-23.0,-23.0,-425.0,15.0,29.0,-443.0
-15.0,59.0,-8.0,-36.0,-356.0,12.0,18.0,-442.0
-42.0,21.0,-26.0,-35.0,-281.0,28.0,45.0,-480.0
-33.0,49.0,-6.0,-30.0,-157.0,49.0,67.0,-492.0
-45.0,87.0,17.0,-19.0,-70.0,90.0,58.0,-483.0
-49.0,160.0,6.0,-8.0,38.0,111.0,47.0,-538.0
-9.0,54.0,18.0,9.0,143.0,126.0,20.0,-555.0
12.0,-114.0,24.0,28.0,201.0,136.0,-28.0,-604.0
-11.0,-38.0,26.0,26.0,307.0,176.0,-14.0,-638.0
11.0,50.0,17.0,23.0,355.0,201.0,-9.0,-665.0
-6.0,-64.0,-8.0,29.0,425.0,207.0,0.0,-693.0
-64.0,-131.0,4.0,20.0,485.0,223.0,15.0,-713.0
-56.0,-60.0,4.0,13.0,526.0,207.0,-10.0,-736.0
0.0,58.0,2.0,22.0,531.0,248.0,16.0,-748.0
71.0,96.0,-5.0,6.0,509.0,246.0,0.0,-738.0
95.0,251.0,1.0,13.0,532.0,220.0,-17.0,-775.0
60.0,217.0,13.0,3.0,528.0,246.0,17.0,-818.0
2.0,73.0,-36.0,-29.0,547.0,209.0,-6.0,-824.0
-6.0,69.0,-29.0,-38.0,542.0,183.0,2.0,-859.0
15.0,30.0,-1.0,-31.0,497.0,200.0,24.0,-883.0
-23.0,90.0,-15.0,-20.0,480.0,185.0,17.0,-883.0
-50.0,33.0,-14.0,-12.0,485.0,155.0,21.0,-869.0
-68.0,45.0,-14.0,-10.0,547.0,172.0,10.0,-844.0
-75.0,15.0,-5.0,-30.0,666.0,178.0,8.0,-863.0
-44.0,-33.0,-21.0,-27.0,875.0,119.0,-6.0,-869.0
-52.0,28.0,-25.0,-36.0,1075.0,180.0,-25.0,-839.0
-17.0,-56.0,-30.0,-38.0,1279.0,262.0,-4.0,-809.0
9.0,-137.0,-1.0,-31.0,1509.0,209.0,1.0,-809.0
-11.0,-75.0,-4.0,-14.0,1669.0,232.0,-6.0,-797.0
-5.0,-16.0,-15.0,1.0,1710.0,248.0,-7.0,-794.0
-39.0,-82.0,-12.0,-28.0,1722.0,259.0,-46.0,-797.0
-42.0,-198.0,-21.0,-15.0,1786.0,256.0,-39.0,-748.0
-36.0,-141.0,-22.0,-17.0,1734.0,256.0,-14.0,-736.0
-18.0,44.0,-8.0,20.0,1666.0,281.0,4.0,-729.0
21.0,27.0,10.0,18.0,1580.0,246.0,25.0,-714.0
7.0,121.0,4.0,9.0,1474.0,311.0,28.0,-638.0
40.0,122.0,35.0,36.0,1387.0,272.0,21.0,-594.0
59.0,13.0,12.0,-10.0,1322.0,217.0,-12.0,-587.0
-24.0,8.0,10.0,2.0,1222.0,180.0,-29.0,-555.0
-69.0,-7.0,12.0,-17.0,1091.0,176.0,7.0,-555.0
-42.0,-22.0,-24.0,-14.0,988.0,241.0,12.0,-496.0
-26.0,-227.0,-13.0,-38.0,823.0,203.0,20.0,-435.0
-48.0,-232.0,-7.0,-54.0,733.0,188.0,44.0,-423.0
-77.0,-66.0,-6.0,-51.0,683.0,194.0,28.0,-378.0
-32.0,-29.0,10.0,-73.0,679.0,180.0,45.0,-338.0
-7.0,67.0,6.0,-34.0,692.0,138.0,54.0,-280.0
27.0,131.0,-9.0,-44.0,692.0,110.0,44.0,-195.0
45.0,53.0,7.0,-24.0,692.0,100.0,63.0,-197.0
-25.0,-134.0,1.0,-13.0,627.0,35.0,76.0,-158.0
-52.0,-15.0,-9.0,23.0,505.0,8.0,72.0,-125.0
-14.0,156.0,2.0,25.0,438.0,-33.0,84.0,-109.0
33.0,-16.0,16.0,-21.0,428.0,-149.0,86.0,-54.0
55.0,-22.0,-8.0,-16.0,415.0,-226.0,65.0,14.0
89.0,-50.0,-21.0,-9.0,379.0,-220.0,64.0,60.0
61.0,-36.0,-24.0,-5.0,338.0,-198.0,56.0,26.0
6.0,276.0,-9.0,-19.0,337.0,-172.0,54.0,33.0
37.0,460.0,-20.0,-6.0,314.0,-149.0,59.0,74.0
45.0,602.0,-52.0,9.0,281.0,-109.0,50.0,120.0
-3.0,459.0,-21.0,-17.0,184.0,-55.0,61.0,159.0
-93.0,95.0,-8.0,-10.0,72.0,-46.0,64.0,174.0
-111.0,-158.0,-19.0,8.0,36.0,-43.0,53.0,243.0
-111.0,-606.0,-11.0,-15.0,41.0,-43.0,50.0,276.0
-124.0,-817.0,-7.0,-6.0,59.0,8.0,67.0,273.0
-49.0,-575.0,4.0,-23.0,87.0,20.0,50.0,304.0
43.0,-105.0,11.0,-22.0,144.0,17.0,42.0,344.0
55.0,62.0,-21.0,-12.0,106.0,44.0,20.0,360.0
-15.0,-333.0,-8.0,-20.0,52.0,9.0,20.0,373.0
-41.0,-952.0,6.0,-16.0,14.0,21.0,50.0,410.0
5.0,-872.0,3.0,-13.0,20.0,17.0,40.0,517.0
85.0,-38.0,5.0,4.0,73.0,19.0,22.0,591.0
82.0,395.0,15.0,-7.0,42.0,20.0,13.0,491.0
31.0,615.0,5.0,-46.0,18.0,-22.0,-6.0,397.0
12.0,449.0,2.0,-31.0,-3.0,-6.0,2.0,312.0
-12.0,278.0,-4.0,-36.0,11.0,-26.0,24.0,222.0
-43.0,343.0,-18.0,-86.0,37.0,-43.0,22.0,197.0
-63.0,471.0,-15.0,-45.0,78.0,-8.0,30.0,139.0
-32.0,631.0,-6.0,-61.0,70.0,-3.0,10.0,46.0
-38.0,173.0,23.0,-54.0,49.0,20.0,28.0,203.0
6.0,145.0,13.0,-26.0,63.0,64.0,44.0,452.0
32.0,120.0,-2.0,-40.0,24.0,61.0,10.0,344.0
-35.0,114.0,7.0,-6.0,43.0,61.0,36.0,292.0
-84.0,156.0,-8.0,-25.0,30.0,91.0,54.0,319.0
-82.0,-215.0,-2.0,-20.0,28.0,94.0,22.0,224.0
13.0,-14.0,-3.0,-21.0,41.0,54.0,6.0,171.0
17.0,91.0,-17.0,-28.0,22.0,51.0,11.0,145.0
-29.0,-29.0,-16.0,-28.0,15.0,27.0,-30.0,159.0
14.0,-239.0,-21.0,-22.0,4.0,28.0,5.0,151.0
63.0,-248.0,0.0,-8.0,13.0,85.0,61.0,155.0
147.0,-11.0,-10.0,16.0,31.0,39.0,54.0,186.0
130.0,105.0,1.0,16.0,36.0,32.0,32.0,220.0
114.0,25.0,-9.0,3.0,-53.0,32.0,24.0,211.0
10.0,-289.0,-5.0,-4.0,-91.0,16.0,34.0,155.0
-144.0,-393.0,-21.0,-9.0,-102.0,16.0,38.0,172.0
-89.0,-566.0,-36.0,8.0,-123.0,-17.0,33.0,124.0
68.0,-196.0,-8.0,-12.0,-110.0,-17.0,10.0,111.0
169.0,556.0,-28.0,-22.0,-147.0,-23.0,-3.0,142.0
132.0,489.0,1.0,-15.0,-150.0,-44.0,-4.0,40.0
-30.0,-181.0,6.0,-3.0,-118.0,-45.0,13.0,54.0
-146.0,-527.0,-17.0,32.0,-125.0,-48.0,44.0,106.0
-123.0,-193.0,-3.0,18.0,-158.0,-42.0,29.0,103.0
11.0,93.0,12.0,15.0,-206.0,-36.0,28.0,123.0
90.0,288.0,-9.0,-1.0,-263.0,-46.0,0.0,137.0
93.0,355.0,-17.0,-20.0,-263.0,-44.0,-10.0,209.0
86.0,347.0,-8.0,-5.0,-291.0,-73.0,-25.0,230.0
15.0,404.0,3.0,4.0,-327.0,-77.0,-31.0,394.0
-15.0,313.0,-2.0,-8.0,-295.0,-54.0,1.0,471.0
-91.0,85.0,-6.0,11.0,-273.0,-84.0,-16.0,322.0
-195.0,-210.0,28.0,25.0,-245.0,-55.0,10.0,211.0
-248.0,-237.0,27.0,8.0,-288.0,-29.0,-4.0,77.0
-241.0,280.0,0.0,-10.0,-354.0,-49.0,-20.0,90.0
-126.0,380.0,6.0,-4.0,-376.0,-74.0,-20.0,66.0
-47.0,470.0,3.0,-10.0,-399.0,-80.0,-22.0,-80.0
37.0,1226.0,-9.0,-14.0,-388.0,-66.0,-10.0,-24.0
9.0,1292.0,-20.0,-2.0,-386.0,-58.0,-12.0,106.0
-54.0,933.0,-25.0,-35.0,-425.0,31.0,4.0,304.0
-126.0,318.0,-15.0,-40.0,-450.0,32.0,5.0,221.0
-225.0,-95.0,-10.0,-12.0,-528.0,21.0,0.0,10.0
-89.0,-423.0,-32.0,-24.0,-574.0,37.0,-11.0,-30.0
31.0,-1619.0,-26.0,-60.0,-530.0,-22.0,-13.0,-109.0
150.0,-2500.0,-27.0,-89.0,-531.0,-51.0,-25.0,-164.0
222.0,-1935.0,-44.0,-82.0,-543.0,-27.0,-24.0,-185.0
110.0,-895.0,-43.0,-90.0,-584.0,-46.0,-33.0,32.0
64.0,-145.0,-54.0,-83.0,-644.0,-53.0,-41.0,296.0
6.0,93.0,-38.0,-70.0,-673.0,-26.0,-29.0,304.0
-41.0,-79.0,-34.0,-64.0,-718.0,-16.0,-3.0,206.0
10.0,47.0,-26.0,-51.0,-734.0,9.0,30.0,239.0
-18.0,34.0,-10.0,-27.0,-730.0,6.0,37.0,302.0
-116.0,66.0,2.0,-13.0,-717.0,9.0,61.0,239.0
-49.0,238.0,10.0,-9.0,-718.0,15.0,87.0,213.0
0.0,374.0,19.0,16.0,-730.0,66.0,93.0,178.0
-162.0,717.0,13.0,23.0,-765.0,105.0,119.0,174.0
-82.0,933.0,33.0,11.0,-812.0,102.0,94.0,187.0
68.0,1142.0,63.0,22.0,-883.0,133.0,93.0,167.0
69.0,1583.0,23.0,44.0,-899.0,104.0,82.0,145.0
230.0,2547.0,13.0,37.0,-913.0,46.0,77.0,111.0
368.0,2299.0,26.0,22.0,-934.0,61.0,68.0,108.0
269.0,489.0,26.0,13.0,-921.0,81.0,27.0,87.0
-128.0,-993.0,18.0,19.0,-903.0,29.0,67.0,58.0
-712.0,-1225.0,2.0,23.0,-833.0,16.0,47.0,56.0
-1038.0,-927.0,24.0,11.0,-797.0,39.0,35.0,11.0
-698.0,-2073.0,14.0,0.0,-793.0,29.0,44.0,3.0
334.0,-1667.0,2.0,3.0,-782.0,27.0,23.0,12.0
1240.0,-730.0,14.0,-5.0,-738.0,4.0,15.0,-22.0
1124.0,-1415.0,1.0,-3.0,-665.0,-20.0,15.0,-7.0
308.0,-1916.0,-4.0,8.0,-557.0,-14.0,24.0,-5.0
-271.0,-2009.0,-6.0,1.0,-486.0,25.0,29.0,3.0
199.0,-470.0,-12.0,20.0,-450.0,15.0,41.0,12.0
798.0,-414.0,-3.0,-14.0,-425.0,-12.0,50.0,22.0
823.0,-627.0,-11.0,-2.0,-435.0,51.0,54.0,15.0
508.0,-125.0,-1.0,6.0,-395.0,57.0,53.0,17.0
-90.0,-440.0,-11.0,-10.0,-315.0,47.0,54.0,7.0
-453.0,-346.0,-17.0,0.0,-288.0,54.0,50.0,-29.0
-450.0,-698.0,2.0,-31.0,-295.0,0.0,32.0,-35.0
-186.0,-218.0,-5.0,-23.0,-274.0,-65.0,39.0,-25.0
13.0,681.0,-21.0,-48.0,-209.0,-109.0,42.0,-18.0
-167.0,908.0,-33.0,-72.0,-135.0,-137.0,27.0,78.0
-219.0,507.0,-29.0,-81.0,-70.0,-130.0,36.0,135.0
-162.0,138.0,-61.0,-74.0,11.0,-116.0,58.0,19.0
-763.0,276.0,-57.0,-46.0,32.0,-144.0,56.0,-44.0
-2256.0,622.0,-36.0,-39.0,-23.0,-104.0,47.0,-124.0
-2643.0,672.0,-22.0,2.0,-65.0,-48.0,45.0,-166.0
-893.0,663.0,-20.0,-1.0,-33.0,-89.0,48.0,-169.0
392.0,711.0,-26.0,-5.0,38.0,-135.0,47.0,-212.0
1558.0,542.0,-26.0,-5.0,109.0,-145.0,45.0,-232.0
1376.0,709.0,-24.0,-35.0,112.0,-167.0,14.0,-166.0
169.0,705.0,-38.0,-54.0,114.0,-227.0,28.0,12.0
175.0,607.0,-14.0,-44.0,123.0,-310.0,81.0,2.0
131.0,440.0,-9.0,7.0,147.0,-358.0,27.0,18.0
-31.0,215.0,-4.0,-9.0,179.0,-287.0,36.0,27.0
-242.0,-72.0,-7.0,-10.0,132.0,-245.0,23.0,-5.0
-176.0,-99.0,-13.0,-20.0,171.0,-210.0,24.0,16.0
-106.0,168.0,23.0,-27.0,228.0,-97.0,39.0,15.0
406.0,160.0,15.0,28.0,271.0,-53.0,2.0,80.0
550.0,225.0,30.0,-9.0,338.0,-32.0,21.0,93.0
543.0,98.0,7.0,-15.0,348.0,2.0,17.0,276.0
589.0,126.0,-4.0,-10.0,379.0,-44.0,33.0,409.0
243.0,175.0,16.0,-12.0,363.0,-40.0,36.0,269.0
238.0,99.0,27.0,5.0,395.0,-62.0,27.0,190.0
54.0,211.0,30.0,-7.0,528.0,-102.0,30.0,116.0
55.0,228.0,16.0,-10.0,621.0,-49.0,27.0,-67.0
28.0,217.0,8.0,8.0,660.0,-86.0,16.0,-140.0
250.0,117.0,5.0,9.0,672.0,-93.0,30.0,-195.0
204.0,84.0,12.0,-26.0,686.0,-148.0,35.0,-144.0
10.0,56.0,19.0,-14.0,748.0,-112.0,2.0,-18.0
-113.0,81.0,6.0,-22.0,857.0,6.0,14.0,68.0
-714.0,53.0,-23.0,-18.0,870.0,32.0,29.0,282.0
-2826.0,53.0,-14.0,0.0,823.0,94.0,22.0,108.0
-4000.0,50.0,-36.0,10.0,837.0,158.0,21.0,169.0
-2387.0,-88.0,-9.0,23.0,941.0,171.0,44.0,497.0
-50.0,-159.0,18.0,-7.0,1018.0,119.0,38.0,255.0
2028.0,-200.0,5.0,-13.0,1026.0,124.0,27.0,-189.0
3249.0,-223.0,24.0,-15.0,987.0,81.0,5.0,-153.0
2850.0,-275.0,-9.0,3.0,941.0,38.0,5.0,-15.0
2679.0,-281.0,-8.0,3.0,944.0,58.0,9.0,-186.0
1670.0,-214.0,-14.0,11.0,967.0,58.0,24.0,-223.0
911.0,-162.0,-24.0,12.0,961.0,104.0,31.0,-484.0
-627.0,-150.0,-1.0,13.0,947.0,142.0,10.0,-562.0
-1918.0,-39.0,17.0,-5.0,953.0,99.0,15.0,-68.0
-1882.0,70.0,-1.0,-13.0,933.0,70.0,-27.0,247.0
-1585.0,29.0,-15.0,-9.0,876.0,64.0,-23.0,253.0
-1087.0,-76.0,-3.0,-49.0,790.0,30.0,-48.0,216.0
-49.0,-244.0,-38.0,-60.0,722.0,36.0,-54.0,162.0
1311.0,-289.0,-40.0,-62.0,666.0,42.0,-51.0,171.0
2028.0,-137.0,-20.0,-57.0,615.0,77.0,-60.0,188.0
1435.0,-23.0,-17.0,-53.0,607.0,83.0,-42.0,138.0
-1218.0,-75.0,-14.0,-59.0,562.0,79.0,-41.0,141.0
-2964.0,-125.0,-24.0,-61.0,509.0,97.0,-21.0,89.0
-2283.0,-34.0,-13.0,-25.0,406.0,89.0,-18.0,66.0
-1567.0,73.0,2.0,-34.0,338.0,97.0,-6.0,117.0
973.0,160.0,-7.0,-41.0,307.0,68.0,-6.0,107.0
2650.0,124.0,-17.0,-34.0,258.0,67.0,-9.0,28.0
2518.0,18.0,-24.0,-30.0,227.0,73.0,-23.0,17.0
2648.0,-29.0,-5.0,-10.0,176.0,54.0,-44.0,52.0
1546.0,-5.0,8.0,-1.0,153.0,72.0,0.0,51.0
1194.0,4.0,5.0,-6.0,101.0,44.0,10.0,104.0
429.0,-97.0,5.0,-18.0,44.0,23.0,-30.0,119.0
-3139.0,-96.0,-22.0,-15.0,33.0,22.0,8.0,3.0
-4000.0,-23.0,-37.0,-13.0,-44.0,44.0,9.0,-62.0
-4000.0,-12.0,-25.0,-28.0,-67.0,106.0,7.0,-6.0
-4000.0,36.0,-25.0,-48.0,-85.0,142.0,28.0,5.0
-825.0,70.0,-20.0,-40.0,-150.0,138.0,-1.0,-98.0
4000.0,51.0,-41.0,-44.0,-234.0,131.0,5.0,-143.0
4000.0,49.0,-64.0,-45.0,-291.0,154.0,4.0,-124.0
4000.0,128.0,-54.0,-24.0,-262.0,172.0,10.0,-113.0
4000.0,233.0,-17.0,7.0,-225.0,168.0,43.0,-73.0
3432.0,191.0,-14.0,1.0,-209.0,205.0,40.0,-69.0
660.0,85.0,-26.0,10.0,-221.0,216.0,50.0,31.0
-664.0,68.0,-1.0,52.0,-240.0,214.0,94.0,125.0
-1045.0,90.0,6.0,48.0,-225.0,240.0,78.0,47.0
-1240.0,110.0,3.0,45.0,-258.0,234.0,59.0,-39.0
-1292.0,65.0,12.0,28.0,-288.0,200.0,39.0,-83.0
-2241.0,6.0,-27.0,27.0,-288.0,184.0,39.0,-17.0
-2377.0,19.0,-19.0,49.0,-295.0,189.0,55.0,-55.0
-2484.0,34.0,-11.0,27.0,-262.0,180.0,27.0,-123.0
-3099.0,8.0,-20.0,15.0,-248.0,183.0,53.0,-116.0
-2322.0,37.0,3.0,24.0,-268.0,207.0,38.0,-124.0
-893.0,46.0,-6.0,20.0,-280.0,194.0,38.0,-79.0
-85.0,56.0,2.0,31.0,-285.0,220.0,40.0,-67.0
240.0,68.0,23.0,26.0,-319.0,206.0,12.0,-65.0
-309.0,-7.0,17.0,1.0,-309.0,158.0,45.0,-122.0
-424.0,-97.0,16.0,-9.0,-299.0,124.0,20.0,-137.0
-212.0,-193.0,20.0,-3.0,-360.0,112.0,32.0,-95.0
-166.0,-198.0,20.0,-2.0,-356.0,107.0,17.0,-96.0
14.0,-213.0,39.0,0.0,-295.0,70.0,25.0,-122.0
-29.0,-214.0,23.0,-16.0,-267.0,127.0,46.0,-125.0
-480.0,-176.0,24.0,-17.0,-267.0,124.0,54.0,-150.0
-1271.0,-148.0,28.0,-8.0,-188.0,87.0,50.0,-181.0
-2189.0,-66.0,46.0,-5.0,-160.0,57.0,61.0,-166.0
-3034.0,-56.0,80.0,-21.0,-186.0,-6.0,90.0,-209.0
-2545.0,-59.0,89.0,-48.0,-225.0,-18.0,59.0,-207.0
-1495.0,-67.0,105.0,-64.0,-253.0,8.0,47.0,-185.0
719.0,-100.0,85.0,-91.0,-234.0,-4.0,51.0,-214.0
3070.0,-118.0,107.0,-94.0,-223.0,-42.0,29.0,-213.0
4000.0,-125.0,140.0,-128.0,-180.0,-81.0,25.0,-189.0
4000.0,-84.0,124.0,-129.0,-125.0,-55.0,42.0,-189.0
3117.0,-77.0,122.0,-108.0,-99.0,39.0,45.0,-192.0
1987.0,-2.0,137.0,-123.0,-44.0,40.0,35.0,-168.0
183.0,68.0,121.0,-140.0,-20.0,10.0,40.0,-166.0
-2010.0,45.0,128.0,-139.0,-84.0,-31.0,39.0,-161.0
-3099.0,85.0,126.0,-121.0,-94.0,-24.0,54.0,-166.0
-1495.0,146.0,89.0,-127.0,-91.0,-24.0,49.0,-202.0
204.0,159.0,52.0,-99.0,-119.0,-76.0,29.0,-228.0
855.0,140.0,21.0,-90.0,-128.0,-67.0,24.0,-259.0
668.0,120.0,-17.0,-96.0,-168.0,-72.0,27.0,-273.0
-278.0,113.0,-48.0,-57.0,-146.0,-39.0,22.0,-293.0
-428.0,142.0,-60.0,-17.0,-124.0,-27.0,12.0,-313.0
-664.0,135.0,-101.0,9.0,-95.0,-69.0,28.0,-305.0
-474.0,85.0,-116.0,39.0,-34.0,-112.0,25.0,-327.0
-201.0,132.0,-126.0,77.0,-44.0,-75.0,17.0,-352.0
70.0,108.0,-165.0,66.0,-64.0,-48.0,8.0,-362.0
6.0,70.0,-171.0,71.0,-95.0,-26.0,-3.0,-334.0
28.0,48.0,-171.0,75.0,-99.0,17.0,9.0,-320.0
673.0,16.0,-175.0,69.0,-81.0,-57.0,16.0,-359.0
986.0,48.0,-149.0,50.0,-103.0,-76.0,8.0,-358.0
1000.0,90.0,-133.0,54.0,-164.0,-10.0,10.0,-301.0
240.0,69.0,-124.0,80.0,-215.0,84.0,-6.0,-260.0
-604.0,30.0,-129.0,64.0,-262.0,87.0,17.0,-248.0
-714.0,-33.0,-125.0,88.0,-291.0,78.0,18.0,-275.0
-979.0,-110.0,-114.0,55.0,-295.0,90.0,-15.0,-305.0
-1769.0,-80.0,-96.0,46.0,-253.0,72.0,20.0,-269.0
-1090.0,-117.0,-54.0,63.0,-193.0,61.0,22.0,-254.0
187.0,-150.0,-69.0,59.0,-150.0,-20.0,6.0,-279.0
126.0,-143.0,-68.0,56.0,-128.0,-187.0,40.0,-275.0
-55.0,-145.0,-47.0,30.0,-119.0,-237.0,58.0,-269.0
595.0,-102.0,-28.0,50.0,-130.0,-214.0,78.0,-262.0
1606.0,-86.0,-33.0,31.0,-163.0,-224.0,93.0,-260.0
1659.0,-58.0,-48.0,6.0,-130.0,-187.0,92.0,-262.0
1181.0,-19.0,-4.0,-5.0,-49.0,-190.0,89.0,-305.0
798.0,27.0,4.0,-10.0,33.0,-110.0,89.0,-301.0
473.0,82.0,-5.0,-18.0,54.0,-102.0,116.0,-280.0
251.0,156.0,0.0,-7.0,76.0,-158.0,111.0,-270.0
32.0,211.0,-3.0,-31.0,159.0,-68.0,124.0,-227.0
-484.0,160.0,38.0,-30.0,167.0,-39.0,141.0,-226.0
-909.0,110.0,19.0,-24.0,195.0,48.0,116.0,-207.0
-1084.0,152.0,12.0,-63.0,237.0,79.0,107.0,-177.0
-1343.0,129.0,10.0,-60.0,285.0,23.0,95.0,-200.0
-1357.0,102.0,-7.0,-57.0,348.0,36.0,120.0,-162.0
-1788.0,103.0,28.0,-38.0,373.0,7.0,124.0,-175.0
-1531.0,91.0,-6.0,-68.0,364.0,-19.0,105.0,-262.0
-599.0,131.0,-7.0,-72.0,375.0,-48.0,90.0,-242.0
-110.0,87.0,-20.0,-72.0,415.0,-92.0,85.0,-185.0
644.0,47.0,-15.0,-79.0,462.0,-110.0,75.0,-175.0
986.0,34.0,-4.0,-90.0,505.0,-111.0,66.0,-140.0
586.0,-13.0,-23.0,-98.0,570.0,-98.0,72.0,-85.0
-227.0,-55.0,0.0,-68.0,627.0,-91.0,72.0,-63.0
-505.0,-64.0,-11.0,-69.0,692.0,-63.0,87.0,-33.0
195.0,-83.0,10.0,-53.0,758.0,-69.0,100.0,84.0
563.0,-121.0,23.0,-28.0,787.0,-107.0,102.0,125.0
896.0,-97.0,40.0,8.0,808.0,-75.0,97.0,162.0
1181.0,-98.0,49.0,-24.0,790.0,-90.0,89.0,218.0
843.0,-89.0,38.0,-2.0,817.0,-59.0,74.0,293.0
517.0,-100.0,30.0,30.0,831.0,25.0,81.0,344.0
276.0,-130.0,11.0,13.0,794.0,-6.0,76.0,319.0
111.0,-103.0,29.0,6.0,725.0,51.0,88.0,360.0
-48.0,-95.0,50.0,-14.0,621.0,101.0,94.0,453.0
-42.0,-53.0,35.0,-20.0,586.0,89.0,64.0,522.0
-85.0,-26.0,24.0,-66.0,570.0,89.0,64.0,550.0
-771.0,-38.0,32.0,-41.0,528.0,113.0,51.0,564.0
-1772.0,-14.0,28.0,-30.0,484.0,136.0,28.0,621.0
-1282.0,-4.0,25.0,-20.0,484.0,115.0,-8.0,676.0
253.0,-4.0,23.0,-9.0,473.0,132.0,-14.0,700.0
618.0,1.0,36.0,-8.0,389.0,131.0,-13.0,751.0
1124.0,40.0,50.0,10.0,328.0,162.0,-11.0,788.0
1237.0,12.0,63.0,15.0,265.0,164.0,-14.0,817.0
855.0,-38.0,24.0,48.0,171.0,137.0,-72.0,851.0
563.0,-28.0,6.0,39.0,99.0,107.0,-84.0,890.0
-974.0,-59.0,24.0,22.0,3.0,68.0,-86.0,914.0
-3606.0,-41.0,24.0,10.0,-55.0,1.0,-127.0,935.0
-4000.0,12.0,30.0,20.0,-82.0,24.0,-122.0,935.0
-1704.0,-5.0,-1.0,6.0,-83.0,136.0,-167.0,881.0
961.0,-6.0,-5.0,-34.0,-45.0,152.0,-169.0,882.0
3395.0,-18.0,-13.0,-4.0,-24.0,147.0,-176.0,882.0
4000.0,-89.0,-11.0,-21.0,14.0,170.0,-203.0,914.0
3591.0,-120.0,11.0,-19.0,20.0,202.0,-162.0,927.0
2191.0,-96.0,-25.0,-19.0,-54.0,178.0,-180.0,874.0
713.0,-96.0,-30.0,-19.0,-144.0,152.0,-192.0,882.0
-144.0,-29.0,-8.0,2.0,-196.0,170.0,-190.0,912.0
-445.0,72.0,9.0,-2.0,-197.0,152.0,-182.0,876.0
-339.0,47.0,1.0,10.0,-183.0,98.0,-195.0,882.0
-479.0,85.0,-20.0,-33.0,-205.0,31.0,-199.0,870.0
-645.0,87.0,-4.0,-37.0,-215.0,26.0,-208.0,851.0
-737.0,63.0,-12.0,-23.0,-223.0,54.0,-203.0,882.0
-767.0,116.0,-7.0,-51.0,-263.0,71.0,-188.0,851.0
-657.0,77.0,-15.0,-19.0,-305.0,23.0,-163.0,817.0
-567.0,2.0,-32.0,-5.0,-352.0,-40.0,-133.0,811.0
-523.0,-15.0,-16.0,-17.0,-437.0,-58.0,-124.0,847.0
-700.0,-22.0,-3.0,-18.0,-449.0,-118.0,-101.0,848.0
-744.0,-31.0,7.0,-24.0,-398.0,-89.0,-82.0,825.0
-323.0,-26.0,11.0,-1.0,-384.0,-72.0,-60.0,825.0
-7.0,-13.0,5.0,-13.0,-356.0,-151.0,-69.0,778.0
89.0,19.0,-6.0,-37.0,-315.0,-152.0,-48.0,739.0
287.0,3.0,7.0,-19.0,-328.0,-143.0,-50.0,616.0
325.0,20.0,15.0,-20.0,-395.0,-154.0,-45.0,590.0
266.0,39.0,-11.0,-25.0,-533.0,-182.0,-11.0,629.0
44.0,34.0,-20.0,-37.0,-702.0,-141.0,-22.0,606.0
-201.0,33.0,-21.0,-8.0,-797.0,-129.0,18.0,589.0
-407.0,15.0,-6.0,22.0,-860.0,-139.0,-11.0,556.0
-590.0,-23.0,-5.0,-10.0,-928.0,-107.0,-3.0,548.0
-582.0,-27.0,-40.0,-32.0,-1039.0,-109.0,24.0,499.0
-392.0,17.0,-25.0,-22.0,-1142.0,-91.0,-10.0,462.0
-196.0,40.0,-20.0,-36.0,-1265.0,-94.0,19.0,483.0
-144.0,78.0,-16.0,-54.0,-1371.0,-42.0,48.0,460.0
-163.0,93.0,-2.0,-20.0,-1434.0,-22.0,33.0,426.0
-52.0,120.0,-14.0,-21.0,-1528.0,-49.0,37.0,373.0
68.0,77.0,-33.0,-52.0,-1619.0,-63.0,30.0,369.0
30.0,43.0,-17.0,-65.0,-1653.0,-43.0,45.0,341.0
128.0,54.0,6.0,-42.0,-1689.0,-43.0,64.0,261.0
199.0,27.0,5.0,-14.0,-1756.0,-116.0,76.0,258.0
187.0,28.0,29.0,-12.0,-1833.0,-136.0,116.0,230.0
186.0,-1.0,20.0,-8.0,-1885.0,-117.0,113.0,165.0
119.0,-20.0,8.0,-13.0,-1944.0,-123.0,149.0,106.0
114.0,-8.0,16.0,16.0,-1951.0,-151.0,171.0,59.0
131.0,3.0,7.0,1.0,-1918.0,-77.0,162.0,16.0
139.0,0.0,7.0,-21.0,-1898.0,-39.0,179.0,6.0
123.0,-23.0,-20.0,-21.0,-1823.0,10.0,191.0,-34.0
135.0,-10.0,-3.0,-37.0,-1729.0,53.0,178.0,-120.0
116.0,-3.0,4.0,-33.0,-1654.0,-32.0,181.0,-159.0
90.0,5.0,-16.0,-38.0,-1528.0,-75.0,179.0,-222.0
80.0,-22.0,-23.0,-20.0,-1383.0,-106.0,135.0,-232.0
70.0,-58.0,-43.0,-32.0,-1207.0,-91.0,129.0,-219.0
52.0,-101.0,-24.0,-8.0,-1032.0,-59.0,138.0,-254.0
8.0,-174.0,-26.0,-7.0,-846.0,-80.0,113.0,-254.0
-7.0,-23.0,-56.0,-6.0,-667.0,13.0,109.0,-278.0
0.0,75.0,-28.0,34.0,-514.0,56.0,95.0,-297.0
-12.0,63.0,-21.0,7.0,-395.0,-76.0,65.0,-274.0
-21.0,129.0,-22.0,28.0,-315.0,-89.0,60.0,-245.0
-14.0,77.0,-8.0,22.0,-248.0,-55.0,29.0,-301.0
-35.0,17.0,-20.0,16.0,-179.0,-56.0,34.0,-315.0
-5.0,-28.0,10.0,10.0,-83.0,-82.0,50.0,-333.0
21.0,-94.0,-13.0,-7.0,5.0,-71.0,50.0,-424.0
51.0,-120.0,-16.0,-3.0,94.0,103.0,42.0,-454.0
61.0,-129.0,3.0,-24.0,225.0,160.0,31.0,-489.0
-3.0,-91.0,-2.0,-5.0,358.0,158.0,38.0,-513.0
-37.0,-142.0,7.0,12.0,476.0,180.0,42.0,-540.0
-85.0,-156.0,14.0,-3.0,579.0,195.0,65.0,-580.0
-64.0,-22.0,47.0,15.0,651.0,234.0,81.0,-589.0
13.0,17.0,27.0,22.0,716.0,237.0,61.0,-608.0
31.0,46.0,21.0,9.0,778.0,250.0,60.0,-620.0
27.0,160.0,3.0,7.0,792.0,237.0,63.0,-649.0
-7.0,124.0,3.0,11.0,758.0,193.0,15.0,-718.0
-24.0,99.0,7.0,9.0,744.0,193.0,3.0,-734.0
-9.0,120.0,-28.0,-9.0,751.0,211.0,10.0,-740.0
5.0,225.0,-29.0,-23.0,758.0,220.0,14.0,-769.0
7.0,221.0,-4.0,-14.0,790.0,226.0,14.0,-776.0
-36.0,79.0,-10.0,-3.0,831.0,268.0,17.0,-794.0
-75.0,115.0,-5.0,-9.0,857.0,220.0,29.0,-787.0
-25.0,-3.0,23.0,-3.0,920.0,144.0,36.0,-798.0
-39.0,-57.0,17.0,16.0,1018.0,197.0,37.0,-776.0
-45.0,40.0,-5.0,9.0,1213.0,201.0,13.0,-781.0
-37.0,-94.0,-23.0,-25.0,1604.0,188.0,-9.0,-824.0
-41.0,-219.0,-34.0,-44.0,2019.0,272.0,6.0,-758.0
-31.0,-170.0,-38.0,-54.0,2419.0,274.0,25.0,-781.0
-21.0,-32.0,-13.0,-37.0,2695.0,271.0,30.0,-817.0
-4.0,17.0,-24.0,-38.0,2825.0,298.0,-8.0,-758.0
-11.0,-21.0,-36.0,-74.0,2862.0,293.0,4.0,-801.0
-41.0,25.0,-52.0,-54.0,2760.0,319.0,37.0,-818.0
-46.0,21.0,-33.0,-29.0,2578.0,339.0,32.0,-803.0
-23.0,60.0,-31.0,-38.0,2376.0,347.0,44.0,-809.0
-49.0,109.0,-24.0,-39.0,2231.0,319.0,64.0,-715.0
-54.0,89.0,-2.0,-5.0,2190.0,355.0,81.0,-723.0
-68.0,33.0,-30.0,-8.0,2306.0,389.0,48.0,-809.0
-46.0,-48.0,-5.0,-24.0,2321.0,293.0,38.0,-856.0
-12.0,-137.0,14.0,-24.0,2189.0,199.0,40.0,-948.0
-36.0,-24.0,0.0,-26.0,1930.0,197.0,25.0,-1012.0
-4.0,254.0,8.0,-5.0,1775.0,246.0,35.0,-979.0
-25.0,187.0,4.0,3.0,1657.0,283.0,54.0,-993.0
-29.0,70.0,-6.0,-10.0,1538.0,274.0,51.0,-1057.0
-55.0,-40.0,9.0,4.0,1352.0,231.0,50.0,-853.0
-46.0,-153.0,4.0,31.0,1136.0,209.0,30.0,-716.0
27.0,-213.0,-13.0,6.0,880.0,142.0,-4.0,-748.0
12.0,-358.0,-7.0,-8.0,615.0,66.0,20.0,-572.0
39.0,-267.0,-9.0,-6.0,503.0,54.0,24.0,-518.0
64.0,3.0,14.0,3.0,409.0,30.0,24.0,-518.0
53.0,239.0,5.0,12.0,253.0,46.0,40.0,-508.0
33.0,182.0,9.0,-25.0,160.0,10.0,44.0,-489.0
-39.0,151.0,14.0,-4.0,41.0,-16.0,65.0,-476.0
-93.0,227.0,-8.0,-4.0,-73.0,-19.0,59.0,-464.0
-100.0,152.0,-6.0,-13.0,-205.0,-28.0,35.0,-425.0
-87.0,81.0,-10.0,16.0,-295.0,0.0,51.0,-384.0
-83.0,-109.0,11.0,-6.0,-338.0,5.0,61.0,-292.0
-67.0,-272.0,16.0,-16.0,-379.0,2.0,56.0,-260.0
-21.0,-183.0,-14.0,-21.0,-326.0,16.0,50.0,-162.0
7.0,-244.0,-19.0,-28.0,-311.0,30.0,37.0,-73.0
-15.0,-360.0,-8.0,-29.0,-328.0,-4.0,59.0,-16.0
-33.0,-365.0,-13.0,-65.0,-308.0,10.0,33.0,-10.0
36.0,-247.0,-11.0,-79.0,-261.0,17.0,19.0,76.0
166.0,811.0,-8.0,-39.0,-153.0,-3.0,46.0,181.0
306.0,1178.0,1.0,-15.0,-108.0,-32.0,50.0,236.0
230.0,607.0,8.0,-19.0,-172.0,-33.0,51.0,349.0
128.0,533.0,5.0,-14.0,-254.0,-19.0,50.0,409.0
34.0,-19.0,27.0,-8.0,-205.0,-43.0,78.0,485.0
-52.0,-59.0,20.0,1.0,-153.0,-54.0,77.0,491.0
-10.0,20.0,10.0,16.0,-240.0,-57.0,64.0,518.0
-63.0,-488.0,20.0,-4.0,-353.0,-33.0,65.0,564.0
-79.0,-879.0,1.0,-14.0,-394.0,-43.0,59.0,597.0
-103.0,-790.0,11.0,-12.0,-299.0,-39.0,61.0,629.0
-120.0,-640.0,15.0,-10.0,-185.0,-42.0,60.0,629.0
-132.0,-600.0,-20.0,-21.0,-151.0,-49.0,45.0,634.0
-107.0,87.0,-30.0,-38.0,-207.0,-77.0,48.0,645.0
-64.0,550.0,-20.0,-32.0,-183.0,-77.0,37.0,606.0
17.0,1238.0,-39.0,-33.0,-211.0,-73.0,45.0,615.0
129.0,1227.0,-36.0,7.0,-248.0,-98.0,48.0,651.0
79.0,319.0,-3.0,-15.0,-220.0,-78.0,21.0,654.0
67.0,276.0,-15.0,-39.0,-256.0,-84.0,45.0,615.0
16.0,-155.0,3.0,-25.0,-205.0,-48.0,33.0,556.0
-112.0,-650.0,-13.0,-41.0,-107.0,-64.0,16.0,555.0
-147.0,-267.0,-29.0,-55.0,-60.0,-67.0,8.0,499.0
-80.0,-505.0,-24.0,-40.0,-35.0,-24.0,29.0,485.0
24.0,-1271.0,-5.0,-14.0,-9.0,-11.0,27.0,434.0
123.0,-1218.0,5.0,-10.0,-11.0,39.0,12.0,422.0
134.0,-1123.0,-4.0,7.0,62.0,45.0,20.0,434.0
80.0,-1393.0,-2.0,22.0,166.0,55.0,1.0,387.0
25.0,-793.0,-30.0,16.0,273.0,44.0,-4.0,391.0
4.0,424.0,3.0,8.0,383.0,46.0,0.0,352.0
21.0,927.0,20.0,4.0,444.0,56.0,-2.0,425.0
31.0,973.0,26.0,16.0,469.0,51.0,17.0,569.0
83.0,1103.0,8.0,8.0,497.0,57.0,45.0,593.0
8.0,1083.0,11.0,7.0,503.0,40.0,25.0,629.0
-32.0,964.0,14.0,22.0,432.0,21.0,31.0,550.0
-29.0,737.0,6.0,2.0,431.0,1.0,14.0,255.0
-66.0,583.0,0.0,-18.0,425.0,25.0,-7.0,42.0
-44.0,1051.0,-5.0,-12.0,415.0,4.0,8.0,-228.0
11.0,2104.0,-2.0,-6.0,365.0,0.0,16.0,-301.0
68.0,2025.0,-15.0,-2.0,279.0,15.0,30.0,-163.0
37.0,982.0,5.0,24.0,275.0,-16.0,2.0,-333.0
21.0,21.0,0.0,10.0,296.0,-14.0,-23.0,-400.0
-180.0,-1200.0,-12.0,-10.0,282.0,0.0,-5.0,-94.0
-412.0,-1467.0,-17.0,-3.0,180.0,-7.0,2.0,241.0
-341.0,-749.0,2.0,5.0,96.0,-19.0,-14.0,202.0
-150.0,-240.0,-3.0,-17.0,84.0,-26.0,-16.0,135.0
-9.0,-590.0,-26.0,-68.0,52.0,-82.0,-33.0,-48.0
-13.0,-692.0,-34.0,-50.0,9.0,-59.0,-60.0,-232.0
-23.0,-965.0,-33.0,-37.0,-29.0,-43.0,-43.0,-13.0
-20.0,-1851.0,-41.0,-52.0,-19.0,-131.0,-38.0,-128.0
-20.0,-2587.0,-34.0,-44.0,-24.0,-193.0,-42.0,-169.0
60.0,-2307.0,-9.0,-59.0,-62.0,-156.0,-53.0,-1.0
147.0,-541.0,-8.0,-63.0,-66.0,-140.0,-40.0,-84.0
269.0,592.0,-22.0,-65.0,-91.0,-138.0,-29.0,-199.0
373.0,790.0,8.0,-79.0,-131.0,-80.0,-36.0,-33.0
318.0,908.0,11.0,-57.0,-195.0,-61.0,-21.0,276.0
184.0,1128.0,2.0,-19.0,-248.0,-16.0,-16.0,292.0
53.0,1055.0,9.0,-36.0,-258.0,-51.0,-23.0,243.0
-116.0,-26.0,3.0,-32.0,-326.0,-49.0,-23.0,279.0
-253.0,-800.0,6.0,-34.0,-408.0,-72.0,-13.0,213.0
-255.0,-325.0,-10.0,-30.0,-516.0,-113.0,-14.0,203.0
-132.0,99.0,-10.0,3.0,-608.0,-88.0,-4.0,228.0
-53.0,-10.0,-3.0,-3.0,-653.0,-101.0,4.0,230.0
-25.0,476.0,7.0,-36.0,-705.0,-102.0,-1.0,235.0
-24.0,982.0,-1.0,-6.0,-744.0,-98.0,18.0,225.0
-61.0,1422.0,5.0,26.0,-877.0,-88.0,6.0,228.0
-83.0,1388.0,3.0,-11.0,-1039.0,-109.0,18.0,269.0
-48.0,424.0,1.0,-9.0,-1137.0,-55.0,61.0,276.0
-41.0,587.0,-7.0,-5.0,-1202.0,-43.0,32.0,263.0
-144.0,2338.0,-18.0,-17.0,-1259.0,-61.0,19.0,247.0
-225.0,3210.0,28.0,-10.0,-1265.0,-31.0,40.0,214.0
-256.0,1423.0,-1.0,12.0,-1202.0,-3.0,51.0,238.0
-171.0,-743.0,8.0,16.0,-1179.0,-49.0,62.0,269.0
24.0,-1968.0,24.0,-4.0,-1137.0,-73.0,65.0,260.0
220.0,-2471.0,4.0,-10.0,-1202.0,-34.0,50.0,296.0
331.0,-2477.0,12.0,-20.0,-1272.0,-18.0,43.0,328.0
250.0,-2203.0,-5.0,-25.0,-1267.0,65.0,34.0,312.0
138.0,-2204.0,11.0,-43.0,-1267.0,98.0,36.0,235.0
-3.0,-2139.0,-24.0,-48.0,-1239.0,61.0,41.0,190.0
109.0,-1537.0,-8.0,-29.0,-1163.0,-37.0,3.0,69.0
69.0,-1460.0,0.0,-36.0,-1098.0,-39.0,-19.0,-76.0
-396.0,-94.0,-24.0,-19.0,-1120.0,-79.0,-3.0,41.0
-582.0,1357.0,5.0,14.0,-1102.0,-111.0,2.0,161.0
-415.0,1012.0,-11.0,26.0,-1039.0,54.0,10.0,235.0
-373.0,437.0,-1.0,8.0,-968.0,43.0,0.0,259.0
-227.0,566.0,9.0,-14.0,-930.0,29.0,12.0,199.0
163.0,577.0,4.0,-24.0,-925.0,-11.0,12.0,292.0
569.0,681.0,16.0,-39.0,-856.0,-94.0,-4.0,491.0
863.0,791.0,-18.0,-33.0,-797.0,81.0,2.0,485.0
973.0,256.0,-14.0,-37.0,-738.0,148.0,-17.0,276.0
935.0,-39.0,-13.0,-48.0,-673.0,15.0,-4.0,201.0
680.0,933.0,-37.0,-50.0,-637.0,24.0,3.0,239.0
434.0,1038.0,-28.0,-69.0,-543.0,42.0,-15.0,58.0
90.0,180.0,-24.0,-64.0,-517.0,-13.0,0.0,-301.0
-979.0,13.0,-22.0,-60.0,-551.0,17.0,1.0,-404.0
-3294.0,-570.0,-31.0,-52.0,-490.0,56.0,14.0,-424.0
-3215.0,-306.0,-15.0,-50.0,-376.0,30.0,29.0,-583.0
-56.0,-357.0,-7.0,-71.0,-190.0,62.0,-4.0,-489.0
1376.0,-627.0,-22.0,-49.0,-110.0,103.0,9.0,-370.0
2712.0,-800.0,22.0,-8.0,-147.0,31.0,10.0,-512.0
3004.0,-802.0,18.0,-3.0,-136.0,43.0,35.0,-301.0
1767.0,258.0,18.0,-24.0,-124.0,64.0,47.0,10.0
825.0,652.0,40.0,-8.0,-85.0,67.0,71.0,62.0
-280.0,811.0,34.0,35.0,0.0,97.0,69.0,148.0
-479.0,920.0,56.0,45.0,145.0,32.0,71.0,171.0
-1300.0,408.0,27.0,13.0,340.0,-45.0,88.0,373.0
-1853.0,-167.0,9.0,6.0,379.0,-123.0,59.0,467.0
-1267.0,-300.0,-15.0,-17.0,228.0,-163.0,58.0,432.0
-879.0,-552.0,-24.0,-14.0,168.0,-244.0,77.0,456.0
-616.0,-688.0,-11.0,-14.0,247.0,-273.0,53.0,105.0
-124.0,-505.0,-31.0,-48.0,267.0,-166.0,29.0,-186.0
-750.0,-202.0,-36.0,-55.0,282.0,-145.0,20.0,-449.0
-2891.0,294.0,-48.0,-10.0,351.0,-124.0,-11.0,-851.0
-2643.0,592.0,-40.0,10.0,354.0,-11.0,0.0,-948.0
-201.0,868.0,-17.0,-19.0,293.0,50.0,-3.0,-627.0
660.0,941.0,-47.0,-11.0,296.0,25.0,4.0,-590.0
2390.0,933.0,-31.0,0.0,365.0,8.0,16.0,-692.0
3761.0,646.0,-11.0,-7.0,334.0,-26.0,32.0,-104.0
3110.0,149.0,-38.0,-1.0,292.0,-48.0,33.0,112.0
2093.0,-12.0,-11.0,12.0,367.0,-23.0,27.0,87.0
979.0,45.0,-13.0,42.0,459.0,8.0,68.0,203.0
651.0,87.0,-6.0,20.0,570.0,39.0,47.0,-2.0
-185.0,74.0,6.0,9.0,621.0,99.0,44.0,145.0
-763.0,172.0,-3.0,47.0,654.0,124.0,71.0,153.0
-2486.0,158.0,-1.0,46.0,784.0,138.0,77.0,62.0
-4000.0,-31.0,-1.0,47.0,811.0,206.0,73.0,149.0
-4000.0,-236.0,21.0,40.0,876.0,188.0,80.0,100.0
-3294.0,-192.0,5.0,40.0,944.0,124.0,90.0,148.0
618.0,-159.0,8.0,69.0,987.0,100.0,67.0,176.0
3168.0,-105.0,23.0,42.0,1069.0,35.0,70.0,273.0
4000.0,52.0,3.0,31.0,1148.0,-14.0,58.0,222.0
4000.0,112.0,9.0,22.0,1213.0,35.0,39.0,77.0
3981.0,131.0,10.0,4.0,1213.0,71.0,39.0,60.0
2146.0,17.0,2.0,10.0,1227.0,64.0,62.0,26.0
346.0,-43.0,15.0,0.0,1279.0,162.0,62.0,36.0
-762.0,-109.0,17.0,-6.0,1213.0,262.0,58.0,58.0
-1392.0,-128.0,4.0,-1.0,1083.0,265.0,61.0,79.0
-1416.0,-89.0,3.0,-15.0,994.0,132.0,36.0,39.0
-1616.0,-51.0,14.0,-10.0,902.0,-92.0,29.0,44.0
-1560.0,-88.0,-12.0,-17.0,870.0,-114.0,9.0,35.0
-1430.0,-141.0,-17.0,-5.0,874.0,-27.0,24.0,-9.0
-1547.0,-106.0,-14.0,3.0,857.0,68.0,19.0,-3.0
-1704.0,-66.0,-34.0,0.0,837.0,138.0,-4.0,-26.0
-1261.0,-27.0,-41.0,9.0,790.0,126.0,24.0,-45.0
-1685.0,-81.0,-9.0,15.0,812.0,144.0,24.0,-89.0
-3153.0,-210.0,-12.0,-3.0,831.0,160.0,5.0,-98.0
-3889.0,-299.0,-29.0,-34.0,794.0,160.0,32.0,-82.0
-2220.0,-244.0,-4.0,-5.0,766.0,118.0,20.0,-80.0
-361.0,-196.0,-36.0,-3.0,692.0,109.0,21.0,-76.0
1937.0,-127.0,-10.0,-33.0,570.0,126.0,16.0,-50.0
4000.0,-109.0,-36.0,-56.0,505.0,119.0,19.0,-49.0
4000.0,-122.0,-62.0,-87.0,495.0,110.0,37.0,-49.0
3508.0,-70.0,-20.0,-57.0,469.0,93.0,26.0,-42.0
-2643.0,-46.0,-28.0,-50.0,383.0,110.0,29.0,-108.0
-4000.0,-52.0,-30.0,-76.0,209.0,134.0,24.0,-118.0
-1950.0,-64.0,-47.0,-69.0,83.0,127.0,33.0,-139.0
798.0,-53.0,-26.0,-48.0,41.0,119.0,10.0,-146.0
4000.0,-86.0,-20.0,-68.0,-7.0,82.0,30.0,-114.0
4000.0,-25.0,-25.0,-57.0,-9.0,77.0,42.0,-69.0
4000.0,74.0,6.0,-56.0,28.0,131.0,42.0,-62.0
4000.0,160.0,0.0,-40.0,19.0,105.0,41.0,-141.0
1885.0,168.0,-11.0,-6.0,-52.0,119.0,13.0,-163.0
-78.0,163.0,14.0,-9.0,-105.0,123.0,23.0,-186.0
-1762.0,180.0,26.0,26.0,-144.0,111.0,34.0,-209.0
-2708.0,141.0,14.0,14.0,-183.0,93.0,49.0,-234.0
-3376.0,110.0,9.0,-28.0,-242.0,48.0,30.0,-236.0
-2957.0,49.0,-12.0,-21.0,-308.0,86.0,46.0,-209.0
-2892.0,105.0,-5.0,-22.0,-307.0,94.0,43.0,-158.0
-1788.0,142.0,9.0,-8.0,-299.0,69.0,33.0,-111.0
-1137.0,117.0,-6.0,-21.0,-299.0,37.0,44.0,-48.0
-647.0,146.0,-14.0,-26.0,-252.0,41.0,9.0,-25.0
-664.0,69.0,-7.0,-21.0,-205.0,42.0,2.0,-132.0
-1271.0,-22.0,-2.0,-46.0,-150.0,15.0,-17.0,-170.0
-2452.0,-83.0,-17.0,-45.0,-177.0,15.0,-25.0,-186.0
-4000.0,-101.0,-27.0,-41.0,-229.0,-3.0,-19.0,-232.0
-4000.0,-94.0,-20.0,-57.0,-227.0,-22.0,-62.0,-362.0
-1495.0,-88.0,-20.0,-69.0,-225.0,-47.0,-54.0,-345.0
705.0,-111.0,-29.0,-69.0,-140.0,-66.0,-28.0,-142.0
2287.0,-164.0,-24.0,-39.0,-8.0,-32.0,-42.0,-158.0
3508.0,-188.0,-45.0,-40.0,39.0,-28.0,-9.0,-117.0
3314.0,-163.0,-36.0,-31.0,44.0,-71.0,-11.0,-105.0
2264.0,-131.0,-3.0,-20.0,-3.0,-109.0,2.0,-136.0
1763.0,-102.0,-1.0,-52.0,-80.0,-174.0,19.0,-76.0
1291.0,-86.0,9.0,-20.0,-73.0,-146.0,32.0,-80.0
444.0,-69.0,14.0,7.0,24.0,-73.0,54.0,-70.0
-156.0,-77.0,-3.0,-6.0,86.0,26.0,37.0,-78.0
-1495.0,-78.0,15.0,12.0,47.0,145.0,56.0,-59.0
-2374.0,22.0,34.0,30.0,-8.0,183.0,58.0,-32.0
-1096.0,41.0,13.0,10.0,-67.0,183.0,46.0,-49.0
603.0,20.0,26.0,1.0,-62.0,169.0,40.0,-53.0
1433.0,-27.0,26.0,26.0,-58.0,138.0,54.0,-108.0
1637.0,-94.0,28.0,9.0,-83.0,88.0,65.0,-98.0
965.0,-62.0,38.0,18.0,-132.0,57.0,48.0,-31.0
33.0,-19.0,20.0,25.0,-139.0,61.0,61.0,-23.0
-541.0,105.0,18.0,10.0,-95.0,-20.0,67.0,13.0
-645.0,233.0,24.0,-2.0,11.0,-51.0,90.0,8.0
-300.0,245.0,17.0,10.0,135.0,25.0,54.0,-26.0
-92.0,244.0,4.0,27.0,143.0,32.0,59.0,-68.0
-146.0,229.0,28.0,6.0,119.0,55.0,81.0,-61.0
-382.0,217.0,36.0,27.0,87.0,81.0,80.0,-76.0
-844.0,152.0,39.0,37.0,58.0,0.0,67.0,-109.0
-1213.0,99.0,36.0,5.0,-1.0,-37.0,43.0,-64.0
-901.0,102.0,45.0,-1.0,-21.0,-6.0,75.0,-120.0
55.0,40.0,31.0,1.0,-67.0,-3.0,56.0,-101.0
1059.0,1.0,4.0,5.0,-108.0,46.0,65.0,-124.0
1411.0,-13.0,11.0,-7.0,-136.0,12.0,69.0,-162.0
863.0,-22.0,4.0,-6.0,-183.0,-19.0,44.0,-140.0
305.0,-56.0,10.0,-20.0,-199.0,9.0,25.0,-181.0
-41.0,-82.0,16.0,-48.0,-240.0,-64.0,25.0,-166.0
-498.0,-72.0,15.0,-44.0,-295.0,-102.0,16.0,-180.0
-1081.0,-39.0,0.0,-25.0,-319.0,-98.0,26.0,-150.0
-1698.0,-24.0,-9.0,-25.0,-323.0,-137.0,13.0,-135.0
-1196.0,-49.0,-9.0,-24.0,-317.0,-161.0,-12.0,-161.0
-280.0,-19.0,1.0,-50.0,-278.0,-131.0,28.0,-132.0
96.0,-8.0,3.0,-55.0,-268.0,-132.0,-6.0,-123.0
358.0,2.0,-29.0,-31.0,-267.0,-130.0,-9.0,-105.0
440.0,12.0,-17.0,-30.0,-223.0,-136.0,-3.0,-61.0
771.0,45.0,-7.0,-18.0,-208.0,-105.0,-20.0,-66.0
673.0,70.0,-27.0,-23.0,-203.0,-77.0,28.0,-113.0
243.0,16.0,-17.0,-31.0,-211.0,-100.0,20.0,-134.0
-254.0,-18.0,-20.0,-6.0,-220.0,-54.0,10.0,-147.0
-1201.0,-73.0,-26.0,-15.0,-197.0,-41.0,12.0,-156.0
-2348.0,-101.0,-9.0,-4.0,-170.0,-104.0,8.0,-146.0
-1918.0,-117.0,-22.0,-29.0,-146.0,-155.0,32.0,-109.0
-128.0,-104.0,-26.0,-25.0,-83.0,-134.0,31.0,-116.0
1181.0,-114.0,-34.0,0.0,-96.0,-126.0,29.0,-104.0
2597.0,-131.0,-36.0,-9.0,-95.0,-147.0,46.0,31.0
2327.0,-50.0,-34.0,12.0,-40.0,-95.0,0.0,148.0
762.0,-44.0,-44.0,14.0,-29.0,-89.0,17.0,116.0
758.0,-35.0,-21.0,10.0,-18.0,-82.0,43.0,14.0
986.0,13.0,-26.0,-6.0,-1.0,-22.0,65.0,-63.0
563.0,25.0,-8.0,-5.0,52.0,67.0,85.0,-155.0
1051.0,38.0,4.0,-14.0,72.0,109.0,69.0,-207.0
306.0,62.0,-18.0,-6.0,61.0,45.0,74.0,-259.0
-1280.0,87.0,-34.0,2.0,63.0,-82.0,45.0,-338.0
-439.0,54.0,-28.0,-42.0,81.0,-146.0,13.0,-199.0
171.0,36.0,-26.0,-45.0,122.0,-108.0,20.0,30.0
477.0,52.0,-13.0,-49.0,114.0,-110.0,44.0,63.0
905.0,33.0,0.0,-46.0,143.0,-7.0,8.0,131.0
325.0,66.0,-18.0,-41.0,204.0,74.0,5.0,131.0
-510.0,95.0,-11.0,-46.0,232.0,40.0,24.0,95.0
-2855.0,101.0,-5.0,-53.0,263.0,47.0,-6.0,137.0
-4000.0,82.0,-11.0,-62.0,253.0,19.0,-6.0,89.0
-3034.0,108.0,-2.0,-56.0,242.0,57.0,-3.0,120.0
-589.0,162.0,7.0,-26.0,235.0,172.0,2.0,164.0
1000.0,124.0,-26.0,-18.0,200.0,191.0,8.0,163.0
2874.0,77.0,-30.0,-24.0,190.0,168.0,-1.0,170.0
2911.0,36.0,-33.0,-10.0,219.0,170.0,6.0,254.0
2408.0,-6.0,-25.0,-2.0,247.0,110.0,38.0,269.0
1677.0,-69.0,-10.0,-1.0,241.0,119.0,38.0,261.0
530.0,-80.0,-16.0,-23.0,196.0,110.0,33.0,332.0
-79.0,-114.0,-16.0,-15.0,158.0,23.0,-6.0,322.0
-151.0,-150.0,-16.0,14.0,155.0,53.0,-2.0,357.0
-247.0,-109.0,-20.0,-10.0,153.0,115.0,26.0,401.0
-238.0,-62.0,-10.0,-4.0,106.0,105.0,13.0,406.0
-378.0,-69.0,-18.0,-16.0,78.0,107.0,9.0,401.0
-889.0,-125.0,-39.0,-36.0,89.0,118.0,-2.0,420.0
-1010.0,-82.0,-1.0,-22.0,53.0,46.0,21.0,507.0
-1141.0,-74.0,24.0,-5.0,44.0,-6.0,-2.0,518.0
-915.0,-66.0,7.0,-4.0,39.0,-9.0,-33.0,530.0
-807.0,-32.0,-30.0,-30.0,20.0,-53.0,-29.0,547.0
-765.0,-86.0,-23.0,-44.0,-20.0,-102.0,-25.0,522.0
-631.0,-63.0,-18.0,-17.0,-52.0,-6.0,-22.0,564.0
-339.0,2.0,-18.0,28.0,-53.0,197.0,-33.0,580.0
170.0,-15.0,34.0,32.0,-56.0,237.0,-58.0,580.0
386.0,26.0,36.0,10.0,-37.0,207.0,-63.0,601.0
361.0,81.0,35.0,10.0,-18.0,145.0,-76.0,621.0
227.0,55.0,12.0,6.0,-9.0,70.0,-68.0,648.0
269.0,22.0,13.0,23.0,-19.0,130.0,-50.0,661.0
199.0,5.0,9.0,7.0,-4.0,123.0,-80.0,654.0
102.0,9.0,19.0,0.0,9.0,180.0,-65.0,670.0
42.0,26.0,34.0,19.0,52.0,178.0,-78.0,670.0
-34.0,1.0,3.0,-21.0,67.0,25.0,-90.0,660.0
172.0,-30.0,5.0,-6.0,26.0,-104.0,-100.0,662.0
640.0,-5.0,-31.0,-11.0,-37.0,-182.0,-102.0,654.0
733.0,-42.0,-6.0,-19.0,-79.0,-39.0,-91.0,700.0
595.0,-28.0,2.0,-1.0,-139.0,66.0,-82.0,719.0
424.0,4.0,-13.0,12.0,-234.0,65.0,-69.0,745.0
-35.0,19.0,-5.0,12.0,-291.0,43.0,-91.0,751.0
-396.0,56.0,-10.0,-25.0,-339.0,62.0,-58.0,727.0
-691.0,37.0,-8.0,-9.0,-345.0,42.0,-81.0,739.0
-1130.0,31.0,-11.0,-13.0,-382.0,-1.0,-90.0,817.0
-1544.0,52.0,-17.0,-2.0,-388.0,-27.0,-92.0,992.0
-779.0,106.0,-21.0,4.0,-391.0,-43.0,-56.0,1012.0
29.0,135.0,18.0,-1.0,-364.0,38.0,-25.0,890.0
313.0,55.0,15.0,-5.0,-348.0,31.0,-36.0,751.0
843.0,-46.0,15.0,-3.0,-372.0,5.0,-2.0,629.0
557.0,-56.0,6.0,-9.0,-354.0,-37.0,-29.0,556.0
33.0,-9.0,-3.0,-43.0,-398.0,-69.0,-2.0,479.0
-181.0,36.0,1.0,-32.0,-421.0,-68.0,-9.0,471.0
127.0,56.0,18.0,-14.0,-502.0,-113.0,-9.0,432.0
365.0,16.0,-24.0,-40.0,-587.0,-188.0,18.0,491.0
498.0,20.0,-42.0,-84.0,-621.0,-190.0,2.0,645.0
699.0,55.0,10.0,-97.0,-649.0,-147.0,37.0,606.0
303.0,82.0,-25.0,-75.0,-616.0,-142.0,41.0,601.0
-73.0,52.0,6.0,-68.0,-665.0,-91.0,59.0,580.0
-5.0,21.0,5.0,-68.0,-659.0,-90.0,40.0,503.0
250.0,51.0,-20.0,-41.0,-663.0,-6.0,61.0,479.0
208.0,59.0,4.0,-19.0,-730.0,10.0,59.0,426.0
325.0,69.0,-18.0,-15.0,-791.0,-11.0,49.0,420.0
493.0,50.0,8.0,19.0,-836.0,-10.0,71.0,373.0
595.0,38.0,18.0,30.0,-853.0,-28.0,96.0,344.0
465.0,-4.0,12.0,13.0,-883.0,-65.0,116.0,314.0
131.0,-24.0,6.0,16.0,-934.0,-145.0,110.0,275.0
8.0,-48.0,-9.0,18.0,-1007.0,-84.0,162.0,249.0
-157.0,-59.0,-7.0,8.0,-1137.0,-77.0,144.0,192.0
-185.0,-31.0,-14.0,-8.0,-1207.0,-97.0,145.0,136.0
-217.0,-68.0,-4.0,-23.0,-1263.0,-115.0,138.0,98.0
-359.0,-84.0,-13.0,-29.0,-1247.0,-175.0,130.0,19.0
-604.0,-49.0,-15.0,-9.0,-1179.0,-144.0,158.0,-39.0
-761.0,-22.0,-18.0,-30.0,-1142.0,-80.0,113.0,-65.0
-641.0,-32.0,-26.0,-22.0,-1108.0,-81.0,105.0,-136.0
-457.0,-66.0,-19.0,-20.0,-1043.0,-35.0,98.0,-144.0
-300.0,-91.0,-16.0,-36.0,-987.0,31.0,105.0,-166.0
-140.0,-91.0,-5.0,-12.0,-942.0,-42.0,90.0,-282.0
-146.0,-88.0,-28.0,-17.0,-903.0,-58.0,113.0,-362.0
-73.0,-39.0,10.0,-3.0,-857.0,-53.0,126.0,-366.0
187.0,15.0,12.0,-19.0,-812.0,-17.0,89.0,-401.0
373.0,29.0,6.0,-28.0,-795.0,31.0,79.0,-422.0
446.0,14.0,36.0,8.0,-773.0,-18.0,89.0,-480.0
430.0,24.0,3.0,6.0,-710.0,-69.0,106.0,-415.0
296.0,28.0,10.0,18.0,-631.0,-70.0,86.0,-260.0
163.0,-1.0,10.0,23.0,-547.0,-28.0,99.0,-415.0
-49.0,-3.0,8.0,7.0,-483.0,-70.0,78.0,-457.0
-183.0,-45.0,11.0,16.0,-413.0,-95.0,72.0,-404.0
-215.0,-55.0,6.0,5.0,-352.0,-75.0,64.0,-508.0
-258.0,145.0,-8.0,-24.0,-309.0,-88.0,64.0,-523.0
-250.0,288.0,2.0,-7.0,-263.0,-29.0,93.0,-563.0
-221.0,179.0,15.0,-19.0,-209.0,50.0,74.0,-679.0
-90.0,217.0,-22.0,-25.0,-146.0,132.0,62.0,-758.0
-127.0,244.0,-34.0,-28.0,-111.0,211.0,32.0,-738.0
-138.0,191.0,-33.0,-25.0,-102.0,162.0,25.0,-708.0
-82.0,150.0,-37.0,-25.0,-28.0,148.0,28.0,-711.0
-19.0,82.0,-7.0,-13.0,55.0,129.0,17.0,-669.0
16.0,-5.0,-9.0,-37.0,118.0,61.0,24.0,-724.0
3.0,-158.0,7.0,-38.0,212.0,15.0,48.0,-750.0
82.0,-231.0,6.0,-28.0,310.0,62.0,52.0,-758.0
108.0,-505.0,6.0,-31.0,403.0,143.0,68.0,-753.0
76.0,-570.0,31.0,-17.0,466.0,70.0,88.0,-692.0
68.0,-258.0,8.0,-41.0,534.0,56.0,70.0,-758.0
66.0,-224.0,10.0,-14.0,596.0,39.0,54.0,-839.0
26.0,-214.0,7.0,-19.0,641.0,141.0,37.0,-730.0
34.0,-105.0,-7.0,-9.0,748.0,135.0,42.0,-679.0
61.0,-95.0,-8.0,11.0,794.0,124.0,65.0,-748.0
41.0,-52.0,3.0,-13.0,854.0,197.0,27.0,-724.0
65.0,95.0,-1.0,2.0,896.0,123.0,17.0,-692.0
90.0,374.0,0.0,-6.0,920.0,112.0,42.0,-668.0
55.0,607.0,-6.0,6.0,947.0,83.0,51.0,-643.0
11.0,589.0,-3.0,-8.0,953.0,156.0,42.0,-649.0
12.0,471.0,3.0,-20.0,944.0,174.0,15.0,-610.0
8.0,550.0,-18.0,-13.0,953.0,179.0,12.0,-586.0
-12.0,460.0,-8.0,-4.0,994.0,170.0,-11.0,-581.0
-20.0,156.0,-24.0,-3.0,1026.0,155.0,-33.0,-555.0
-44.0,60.0,-28.0,4.0,1091.0,197.0,-30.0,-545.0
-68.0,-150.0,-3.0,10.0,1136.0,256.0,-18.0,-529.0
-83.0,-300.0,-8.0,-12.0,1148.0,282.0,-26.0,-425.0
-71.0,-275.0,-18.0,0.0,1140.0,250.0,-38.0,-305.0
-49.0,-419.0,-38.0,-10.0,1123.0,368.0,-24.0,-332.0
-14.0,-656.0,-32.0,-16.0,1059.0,309.0,-13.0,-397.0
-10.0,-537.0,-9.0,6.0,1018.0,297.0,23.0,-455.0
16.0,-174.0,1.0,0.0,953.0,336.0,-15.0,-553.0
60.0,-117.0,-13.0,-14.0,902.0,290.0,-25.0,-659.0
25.0,-103.0,-24.0,-13.0,941.0,276.0,5.0,-776.0
-27.0,45.0,-18.0,-10.0,947.0,223.0,8.0,-928.0
-51.0,46.0,-11.0,-2.0,953.0,216.0,2.0,-883.0
-13.0,-5.0,5.0,-25.0,880.0,144.0,-10.0,-536.0
-24.0,83.0,0.0,-45.0,811.0,199.0,-14.0,-356.0
-6.0,-46.0,1.0,-15.0,758.0,216.0,-35.0,-352.0
17.0,-33.0,-4.0,-38.0,764.0,154.0,-22.0,-333.0
18.0,180.0,-2.0,-39.0,822.0,177.0,-28.0,-380.0
27.0,241.0,-19.0,-16.0,888.0,132.0,-11.0,-344.0
1.0,87.0,-20.0,-40.0,987.0,162.0,-11.0,-305.0
-21.0,-41.0,-9.0,-32.0,1012.0,164.0,-16.0,-312.0
-92.0,-97.0,-12.0,-24.0,1053.0,156.0,-14.0,-354.0
-71.0,-139.0,15.0,-22.0,1018.0,148.0,1.0,-431.0
16.0,240.0,-10.0,-6.0,988.0,146.0,30.0,-362.0
76.0,418.0,-11.0,-14.0,941.0,113.0,23.0,-206.0
35.0,483.0,-7.0,-11.0,888.0,83.0,41.0,-197.0
-5.0,648.0,-5.0,6.0,865.0,64.0,31.0,-116.0
4.0,456.0,26.0,-23.0,857.0,-47.0,32.0,66.0
-39.0,20.0,8.0,-28.0,837.0,-135.0,37.0,165.0
-56.0,-72.0,-15.0,-6.0,745.0,-81.0,22.0,131.0
-64.0,577.0,6.0,-21.0,680.0,-3.0,33.0,82.0
-64.0,1201.0,-2.0,-26.0,635.0,13.0,34.0,49.0
-36.0,668.0,6.0,-31.0,672.0,94.0,35.0,-54.0
-6.0,-236.0,30.0,-63.0,713.0,123.0,12.0,-78.0
-41.0,-743.0,-8.0,-44.0,733.0,124.0,23.0,-149.0
-140.0,-1246.0,-21.0,-39.0,758.0,66.0,19.0,-120.0
-207.0,-1268.0,-8.0,-54.0,794.0,54.0,13.0,213.0
-164.0,-1327.0,-5.0,-36.0,888.0,35.0,17.0,499.0
-39.0,-1095.0,-27.0,-39.0,924.0,35.0,6.0,491.0
133.0,225.0,-10.0,-16.0,917.0,172.0,38.0,491.0
269.0,1071.0,13.0,-8.0,866.0,163.0,28.0,420.0
160.0,582.0,7.0,-8.0,792.0,200.0,16.0,243.0
-2.0,-137.0,-1.0,-22.0,792.0,211.0,22.0,174.0
-58.0,-540.0,-21.0,-33.0,758.0,189.0,24.0,202.0
-47.0,-724.0,-16.0,-10.0,766.0,225.0,21.0,243.0
123.0,-209.0,-15.0,-2.0,741.0,218.0,20.0,352.0
281.0,802.0,-12.0,-3.0,595.0,200.0,51.0,695.0
248.0,1038.0,-12.0,-12.0,455.0,114.0,44.0,760.0
103.0,660.0,-17.0,-22.0,375.0,54.0,55.0,620.0
-34.0,876.0,-7.0,-22.0,375.0,13.0,65.0,609.0
-66.0,1103.0,6.0,-5.0,403.0,-3.0,54.0,519.0
-39.0,64.0,4.0,9.0,399.0,46.0,81.0,434.0
-81.0,-1017.0,3.0,22.0,320.0,17.0,86.0,397.0
-70.0,-1277.0,-14.0,-4.0,194.0,-15.0,70.0,308.0
-66.0,-952.0,-24.0,-23.0,119.0,-22.0,65.0,165.0
-112.0,-314.0,-24.0,-10.0,90.0,-37.0,43.0,267.0
-91.0,-414.0,-4.0,-24.0,138.0,-29.0,32.0,541.0
-73.0,-698.0,10.0,-13.0,187.0,-28.0,46.0,397.0
-10.0,-488.0,-8.0,-16.0,212.0,0.0,22.0,341.0
18.0,304.0,11.0,-23.0,210.0,-2.0,27.0,304.0
-18.0,659.0,29.0,-23.0,192.0,-11.0,54.0,77.0
-127.0,1057.0,16.0,-24.0,177.0,-13.0,17.0,-40.0
-225.0,2143.0,8.0,-19.0,154.0,-13.0,37.0,22.0
-181.0,1116.0,10.0,-15.0,170.0,1.0,47.0,330.0
-111.0,-1061.0,9.0,-29.0,118.0,-1.0,44.0,341.0
48.0,-1283.0,-7.0,-42.0,20.0,-2.0,67.0,273.0
69.0,-1516.0,-1.0,-12.0,10.0,-7.0,49.0,324.0
-39.0,-2009.0,-20.0,-15.0,34.0,34.0,35.0,292.0
-20.0,-1783.0,-16.0,-24.0,75.0,56.0,18.0,296.0
-25.0,-770.0,-4.0,-1.0,78.0,53.0,0.0,274.0
39.0,496.0,-20.0,-5.0,21.0,54.0,-5.0,247.0
171.0,1245.0,-15.0,9.0,-48.0,54.0,-3.0,296.0
183.0,2673.0,-1.0,8.0,-111.0,85.0,6.0,319.0
106.0,3340.0,-9.0,4.0,-123.0,36.0,22.0,255.0
13.0,1032.0,0.0,15.0,-127.0,38.0,14.0,264.0
-36.0,-448.0,-11.0,-2.0,-134.0,54.0,-10.0,235.0
23.0,56.0,-20.0,-21.0,-137.0,27.0,-38.0,203.0
77.0,-20.0,-6.0,-17.0,-168.0,19.0,-33.0,206.0
127.0,-436.0,-38.0,-24.0,-211.0,-1.0,-28.0,200.0
169.0,-379.0,-42.0,-14.0,-212.0,10.0,-26.0,221.0
184.0,-448.0,-41.0,-28.0,-190.0,-9.0,-35.0,226.0
97.0,-830.0,-46.0,-36.0,-177.0,-16.0,-73.0,210.0
-29.0,-749.0,-52.0,-39.0,-150.0,-12.0,-53.0,203.0
-95.0,-221.0,-36.0,-54.0,-124.0,-37.0,-63.0,212.0
-236.0,162.0,-24.0,-48.0,-123.0,-38.0,-98.0,189.0
-283.0,146.0,-31.0,-37.0,-152.0,-16.0,-97.0,196.0
-209.0,225.0,6.0,-20.0,-141.0,1.0,-68.0,264.0
-183.0,-391.0,-12.0,-32.0,-187.0,-24.0,-63.0,286.0
-132.0,-763.0,-17.0,-27.0,-239.0,-59.0,-42.0,283.0
-51.0,-448.0,-5.0,-45.0,-285.0,-90.0,-28.0,341.0
0.0,-232.0,0.0,-46.0,-321.0,-69.0,-23.0,461.0
-6.0,-432.0,22.0,-5.0,-307.0,-33.0,4.0,536.0
-46.0,-810.0,17.0,10.0,-339.0,-45.0,15.0,438.0
-211.0,-1457.0,20.0,29.0,-409.0,-39.0,33.0,312.0
-295.0,-1747.0,50.0,30.0,-443.0,-68.0,32.0,202.0
-29.0,-700.0,36.0,4.0,-478.0,-78.0,22.0,144.0
40.0,-143.0,27.0,-11.0,-506.0,-55.0,19.0,65.0
-104.0,-106.0,40.0,-2.0,-490.0,-56.0,37.0,-124.0
-258.0,410.0,30.0,8.0,-556.0,3.0,54.0,-81.0
-416.0,696.0,21.0,7.0,-582.0,28.0,48.0,237.0
134.0,549.0,26.0,4.0,-640.0,30.0,32.0,596.0
784.0,1128.0,15.0,3.0,-705.0,-40.0,41.0,621.0
772.0,1754.0,9.0,16.0,-717.0,-88.0,61.0,471.0
328.0,2168.0,25.0,16.0,-788.0,-21.0,83.0,269.0
-896.0,2298.0,2.0,6.0,-812.0,-33.0,67.0,131.0
-942.0,1948.0,12.0,7.0,-812.0,-25.0,48.0,196.0
595.0,2156.0,27.0,-8.0,-860.0,-56.0,59.0,296.0
1110.0,1877.0,-10.0,-27.0,-903.0,-47.0,59.0,138.0
847.0,1238.0,-1.0,-30.0,-948.0,-44.0,83.0,-193.0
287.0,711.0,17.0,-14.0,-1031.0,-84.0,67.0,-276.0
-41.0,52.0,10.0,-6.0,-1064.0,-74.0,59.0,-142.0
-323.0,-462.0,-4.0,-13.0,-1098.0,-42.0,71.0,-168.0
-449.0,-261.0,14.0,-2.0,-1114.0,-36.0,54.0,-407.0
-129.0,-281.0,-2.0,-13.0,-1077.0,-84.0,42.0,-487.0
-243.0,-1290.0,-38.0,-6.0,-1120.0,-82.0,44.0,-269.0
-65.0,-1916.0,-28.0,0.0,-1124.0,-135.0,30.0,138.0
6.0,-2099.0,-41.0,-14.0,-1194.0,-102.0,2.0,187.0
-245.0,-1090.0,-25.0,-18.0,-1292.0,-126.0,10.0,103.0
-343.0,-596.0,-9.0,-29.0,-1319.0,-185.0,20.0,0.0
-129.0,-502.0,2.0,-21.0,-1333.0,-184.0,26.0,-166.0
-311.0,-121.0,20.0,-33.0,-1292.0,-221.0,18.0,-137.0
-518.0,-1802.0,11.0,-34.0,-1250.0,-179.0,33.0,-269.0
-68.0,-3253.0,-1.0,-36.0,-1194.0,-171.0,69.0,-448.0
446.0,-1290.0,-20.0,-23.0,-1137.0,-144.0,47.0,-234.0
683.0,941.0,-26.0,-5.0,-1055.0,-123.0,56.0,-67.0
660.0,660.0,-6.0,-20.0,-924.0,-97.0,69.0,-25.0
477.0,86.0,-25.0,-11.0,-818.0,-82.0,43.0,221.0
-620.0,-1451.0,-20.0,-20.0,-751.0,-120.0,40.0,165.0
-1605.0,-1265.0,-17.0,-21.0,-707.0,-66.0,56.0,87.0
-1267.0,306.0,-32.0,-10.0,-659.0,-55.0,29.0,96.0
44.0,217.0,-12.0,-20.0,-537.0,-98.0,16.0,3.0
1246.0,550.0,-16.0,-2.0,-379.0,-116.0,65.0,-114.0
1677.0,693.0,3.0,-10.0,-334.0,-65.0,32.0,-214.0
1375.0,794.0,6.0,-9.0,-295.0,-59.0,45.0,-398.0
-250.0,911.0,-2.0,5.0,-241.0,-95.0,53.0,-622.0
-2851.0,876.0,-3.0,10.0,-212.0,-106.0,42.0,-313.0
-2611.0,839.0,2.0,2.0,-234.0,-137.0,38.0,-38.0
54.0,607.0,5.0,-3.0,-234.0,-85.0,16.0,-93.0
1307.0,400.0,7.0,4.0,-183.0,-94.0,24.0,-14.0
2322.0,-440.0,-4.0,-23.0,-103.0,-141.0,2.0,14.0
1887.0,-631.0,-17.0,-29.0,-8.0,-167.0,36.0,44.0
1168.0,73.0,-8.0,-38.0,-7.0,-182.0,27.0,15.0
608.0,135.0,-25.0,-34.0,-61.0,-122.0,14.0,-43.0
-218.0,56.0,-32.0,-35.0,-54.0,-89.0,7.0,34.0
-246.0,134.0,-36.0,-73.0,-17.0,-67.0,9.0,-21.0
-508.0,7.0,4.0,-40.0,64.0,-77.0,45.0,-26.0
-361.0,-13.0,-17.0,-46.0,80.0,-74.0,4.0,14.0
-437.0,5.0,-23.0,-34.0,87.0,-51.0,29.0,-84.0
-518.0,82.0,-8.0,-33.0,113.0,-17.0,6.0,-87.0
-1605.0,56.0,-33.0,-55.0,118.0,21.0,-3.0,-25.0
-4000.0,21.0,-24.0,-31.0,213.0,-21.0,8.0,-35.0
-3695.0,201.0,-15.0,-19.0,258.0,-65.0,8.0,-31.0
-654.0,420.0,3.0,-36.0,202.0,-93.0,17.0,10.0
1189.0,542.0,-25.0,-27.0,170.0,-117.0,5.0,20.0
2976.0,341.0,15.0,0.0,122.0,-66.0,20.0,-30.0
2523.0,197.0,4.0,9.0,83.0,-59.0,0.0,-27.0
843.0,160.0,-47.0,2.0,16.0,-66.0,-8.0,28.0
1116.0,91.0,-22.0,-14.0,-43.0,1.0,5.0,60.0
976.0,57.0,-9.0,-2.0,11.0,79.0,18.0,42.0
1150.0,18.0,7.0,-38.0,163.0,90.0,58.0,18.0
1384.0,28.0,-7.0,-25.0,348.0,29.0,56.0,-5.0
1175.0,-79.0,11.0,-9.0,462.0,9.0,47.0,-50.0
137.0,-135.0,3.0,-21.0,497.0,30.0,49.0,-20.0
-1156.0,-139.0,-23.0,-14.0,544.0,58.0,67.0,-5.0
-1137.0,-137.0,-21.0,-18.0,627.0,64.0,74.0,-16.0
-3619.0,-87.0,-20.0,-4.0,800.0,18.0,73.0,-2.0
-4000.0,23.0,6.0,-4.0,1018.0,61.0,92.0,47.0
-4000.0,65.0,-4.0,9.0,1201.0,93.0,75.0,98.0
2287.0,25.0,5.0,6.0,1266.0,44.0,56.0,83.0
4000.0,-19.0,1.0,12.0,1287.0,74.0,45.0,86.0
4000.0,-80.0,-24.0,23.0,1287.0,156.0,73.0,104.0
2209.0,-89.0,-10.0,35.0,1156.0,232.0,69.0,98.0
-2611.0,-30.0,21.0,15.0,1148.0,283.0,70.0,100.0
-4000.0,47.0,-5.0,-5.0,1213.0,183.0,86.0,47.0
-4000.0,-1.0,-9.0,-1.0,1325.0,103.0,39.0,28.0
-1365.0,-74.0,-1.0,-9.0,1312.0,106.0,29.0,28.0
4000.0,-145.0,-23.0,-6.0,1142.0,154.0,-3.0,12.0
4000.0,-125.0,-37.0,-4.0,1059.0,207.0,-13.0,120.0
4000.0,-24.0,-4.0,-2.0,1051.0,135.0,11.0,196.0
4000.0,2.0,-1.0,-41.0,1050.0,-15.0,-3.0,200.0
4000.0,-95.0,-16.0,-37.0,925.0,-58.0,6.0,174.0
-1495.0,-172.0,-12.0,-9.0,801.0,54.0,14.0,199.0
-4000.0,-172.0,-24.0,6.0,706.0,165.0,7.0,182.0
-3956.0,-168.0,-8.0,8.0,641.0,152.0,10.0,97.0
-1769.0,-62.0,-11.0,-4.0,570.0,101.0,12.0,92.0
66.0,-42.0,-1.0,0.0,485.0,113.0,-12.0,35.0
574.0,-38.0,-5.0,-19.0,402.0,157.0,1.0,18.0
-1031.0,-39.0,9.0,-11.0,325.0,155.0,-5.0,46.0
-2452.0,-26.0,0.0,-15.0,199.0,119.0,-8.0,-3.0
-1984.0,30.0,0.0,-28.0,162.0,158.0,10.0,-10.0
-2076.0,-30.0,-9.0,-21.0,204.0,189.0,-1.0,91.0
-999.0,-26.0,5.0,-19.0,166.0,180.0,5.0,108.0
-151.0,11.0,44.0,1.0,119.0,177.0,-10.0,149.0
-296.0,22.0,10.0,-5.0,53.0,189.0,17.0,163.0
-673.0,7.0,20.0,-22.0,1.0,191.0,20.0,90.0
-974.0,40.0,28.0,-22.0,-130.0,193.0,-2.0,73.0
-1305.0,143.0,27.0,-4.0,-242.0,220.0,7.0,79.0
-2090.0,200.0,-10.0,1.0,-250.0,167.0,40.0,56.0
-1918.0,235.0,4.0,-10.0,-274.0,137.0,33.0,27.0
-1201.0,266.0,18.0,-13.0,-254.0,176.0,6.0,61.0
-426.0,215.0,-8.0,-23.0,-242.0,144.0,20.0,66.0
397.0,66.0,-24.0,-23.0,-299.0,141.0,-1.0,77.0
733.0,-20.0,-3.0,-25.0,-321.0,126.0,-30.0,39.0
452.0,-11.0,27.0,-35.0,-321.0,118.0,9.0,31.0
481.0,4.0,-4.0,-11.0,-278.0,162.0,4.0,24.0
556.0,-36.0,-3.0,-8.0,-197.0,134.0,0.0,-14.0
863.0,-44.0,-11.0,-44.0,-185.0,98.0,24.0,-14.0
1172.0,-27.0,-14.0,-16.0,-190.0,58.0,33.0,-52.0
1124.0,-43.0,-17.0,-9.0,-196.0,51.0,12.0,-43.0
834.0,-47.0,-8.0,-9.0,-157.0,58.0,19.0,-54.0
35.0,-34.0,-2.0,32.0,-83.0,54.0,31.0,-47.0
-317.0,-21.0,2.0,39.0,14.0,62.0,7.0,-34.0
-261.0,-68.0,-17.0,30.0,111.0,44.0,46.0,-55.0
-422.0,-118.0,2.0,22.0,119.0,13.0,26.0,-75.0
-2761.0,-166.0,2.0,22.0,72.0,-12.0,36.0,-79.0
-4000.0,-129.0,-37.0,-18.0,55.0,-9.0,46.0,-96.0
-4000.0,-4.0,-3.0,-72.0,39.0,-25.0,32.0,-146.0
121.0,54.0,-16.0,-74.0,25.0,-15.0,34.0,-166.0
3870.0,49.0,-57.0,-68.0,-1.0,-8.0,4.0,-169.0
4000.0,34.0,-50.0,-67.0,7.0,-30.0,35.0,-180.0
4000.0,-27.0,-19.0,-71.0,38.0,2.0,21.0,-193.0
3821.0,-92.0,-9.0,-61.0,42.0,40.0,8.0,-226.0
2092.0,-13.0,-7.0,-29.0,81.0,30.0,17.0,-229.0
310.0,34.0,4.0,-24.0,88.0,39.0,18.0,-232.0
-175.0,17.0,28.0,-28.0,113.0,42.0,18.0,-288.0
-441.0,-4.0,9.0,-16.0,145.0,2.0,4.0,-313.0
-309.0,-77.0,-10.0,-8.0,188.0,24.0,18.0,-334.0
-288.0,-66.0,27.0,-7.0,237.0,24.0,-3.0,-382.0
-844.0,-55.0,-1.0,-7.0,242.0,-23.0,13.0,-400.0
-1882.0,-81.0,-5.0,-12.0,264.0,-26.0,16.0,-401.0
-2076.0,-84.0,-5.0,-31.0,247.0,-22.0,-2.0,-395.0
-1540.0,-31.0,-19.0,0.0,240.0,-8.0,54.0,-401.0
-1231.0,43.0,-9.0,12.0,195.0,-11.0,79.0,-427.0
-346.0,29.0,-7.0,-20.0,125.0,2.0,82.0,-456.0
-1195.0,-10.0,7.0,0.0,112.0,23.0,67.0,-431.0
-2985.0,-82.0,-32.0,-36.0,150.0,26.0,50.0,-389.0
-2903.0,-72.0,-5.0,-44.0,237.0,-3.0,66.0,-431.0
-2773.0,-32.0,-14.0,-28.0,285.0,-29.0,73.0,-454.0
-1866.0,-10.0,-14.0,-64.0,302.0,4.0,80.0,-455.0
2284.0,-10.0,-20.0,-59.0,271.0,41.0,62.0,-512.0
4000.0,8.0,-60.0,-57.0,226.0,71.0,48.0,-492.0
4000.0,52.0,-14.0,-42.0,196.0,-8.0,73.0,-449.0
4000.0,41.0,-1.0,-7.0,202.0,-23.0,44.0,-345.0
2458.0,82.0,-1.0,-24.0,248.0,-38.0,18.0,-247.0
1059.0,101.0,-9.0,-19.0,184.0,-66.0,36.0,-292.0
-566.0,83.0,-9.0,-3.0,114.0,-46.0,35.0,-358.0
-371.0,135.0,-31.0,-15.0,63.0,-50.0,30.0,-380.0
-337.0,172.0,-13.0,-12.0,37.0,13.0,18.0,-262.0
-685.0,142.0,14.0,2.0,-19.0,45.0,40.0,-236.0
-836.0,41.0,-15.0,-14.0,-109.0,46.0,44.0,-456.0
-850.0,-44.0,-8.0,-30.0,-110.0,37.0,29.0,-604.0
-714.0,13.0,7.0,18.0,-137.0,14.0,39.0,-622.0
-162.0,34.0,27.0,18.0,-146.0,-39.0,54.0,-440.0
608.0,40.0,27.0,23.0,-201.0,-54.0,79.0,-440.0
745.0,60.0,8.0,47.0,-225.0,-22.0,72.0,-605.0
586.0,41.0,-1.0,36.0,-234.0,-97.0,51.0,-557.0
-132.0,33.0,1.0,16.0,-246.0,-98.0,53.0,-276.0
-712.0,18.0,-4.0,15.0,-220.0,-80.0,26.0,-75.0
-1267.0,-10.0,-3.0,32.0,-221.0,-69.0,25.0,-150.0
-1266.0,-28.0,18.0,4.0,-205.0,-63.0,25.0,-98.0
-957.0,10.0,1.0,15.0,-196.0,-82.0,-1.0,-118.0
-1066.0,-21.0,-7.0,26.0,-217.0,-39.0,16.0,-78.0
-1394.0,-83.0,-17.0,7.0,-227.0,-91.0,31.0,-51.0
-1430.0,-22.0,12.0,28.0,-215.0,-94.0,47.0,-40.0
-368.0,12.0,4.0,22.0,-242.0,-51.0,33.0,0.0
790.0,63.0,-39.0,15.0,-268.0,-31.0,22.0,-6.0
1625.0,78.0,-31.0,7.0,-273.0,-19.0,30.0,29.0
1702.0,90.0,-47.0,-14.0,-227.0,-57.0,34.0,1.0
986.0,132.0,-14.0,12.0,-156.0,-92.0,65.0,35.0
516.0,90.0,-26.0,5.0,-131.0,-93.0,49.0,47.0
180.0,54.0,-45.0,1.0,-133.0,-105.0,54.0,38.0
50.0,34.0,-31.0,11.0,-158.0,-177.0,64.0,14.0
-143.0,-11.0,-42.0,-13.0,-155.0,-154.0,37.0,74.0
-432.0,-35.0,-11.0,-10.0,-168.0,-110.0,46.0,97.0
-516.0,-28.0,-31.0,7.0,-189.0,-169.0,10.0,107.0
-641.0,-43.0,-24.0,-14.0,-148.0,-109.0,2.0,170.0
-664.0,-35.0,7.0,-23.0,-128.0,-82.0,23.0,129.0
-675.0,-52.0,-10.0,-21.0,-110.0,-140.0,28.0,132.0
-569.0,-89.0,0.0,-19.0,-111.0,-88.0,21.0,131.0
-295.0,-92.0,-8.0,-33.0,-149.0,-25.0,13.0,145.0
-45.0,-66.0,30.0,-63.0,-136.0,7.0,39.0,182.0
-218.0,-19.0,25.0,-55.0,-73.0,-41.0,21.0,199.0
-1422.0,-5.0,11.0,-63.0,-58.0,-57.0,5.0,201.0
-2256.0,8.0,31.0,-54.0,-82.0,-61.0,22.0,267.0
-480.0,17.0,11.0,-42.0,-83.0,-49.0,6.0,292.0
1124.0,-20.0,15.0,-50.0,-58.0,67.0,-14.0,263.0
1506.0,-19.0,21.0,-44.0,-10.0,15.0,22.0,324.0
1116.0,-4.0,38.0,-41.0,14.0,-17.0,33.0,361.0
-4000.0,-52.0,46.0,-30.0,41.0,40.0,21.0,361.0
-4000.0,-136.0,39.0,-19.0,98.0,84.0,21.0,369.0
911.0,-192.0,45.0,-32.0,141.0,52.0,15.0,377.0
4000.0,-88.0,79.0,-38.0,196.0,-7.0,18.0,397.0
4000.0,57.0,88.0,-62.0,259.0,93.0,24.0,438.0
4000.0,147.0,101.0,-67.0,245.0,142.0,24.0,526.0
2781.0,162.0,121.0,-87.0,216.0,130.0,28.0,551.0
1832.0,138.0,147.0,-112.0,233.0,76.0,41.0,556.0
-232.0,58.0,135.0,-102.0,249.0,36.0,36.0,603.0
-1296.0,-59.0,108.0,-133.0,205.0,-17.0,6.0,613.0
-1351.0,-85.0,89.0,-137.0,187.0,-91.0,-51.0,621.0
-483.0,-104.0,83.0,-111.0,125.0,-101.0,-75.0,629.0
45.0,-93.0,63.0,-127.0,34.0,-93.0,-79.0,621.0
-186.0,-55.0,44.0,-132.0,22.0,-57.0,-101.0,649.0
-284.0,-20.0,47.0,-88.0,-30.0,-51.0,-107.0,686.0
-544.0,52.0,2.0,-78.0,-46.0,61.0,-76.0,719.0
-502.0,59.0,-7.0,-46.0,-67.0,119.0,-71.0,695.0
-1670.0,55.0,-32.0,-13.0,-58.0,231.0,-83.0,686.0
-2264.0,54.0,-56.0,-16.0,-34.0,282.0,-81.0,695.0
-1402.0,21.0,-116.0,12.0,-36.0,118.0,-84.0,686.0
-979.0,34.0,-135.0,18.0,-64.0,93.0,-94.0,658.0
-1750.0,-7.0,-106.0,24.0,-76.0,94.0,-91.0,680.0
-750.0,-72.0,-141.0,54.0,-62.0,137.0,-56.0,707.0
1085.0,-88.0,-116.0,59.0,-112.0,145.0,-41.0,751.0
1735.0,-80.0,-112.0,76.0,-128.0,126.0,-46.0,745.0
2287.0,-28.0,-145.0,68.0,-162.0,103.0,-10.0,725.0
1767.0,-44.0,-121.0,65.0,-155.0,15.0,-11.0,710.0
876.0,-12.0,-109.0,81.0,-108.0,-5.0,-56.0,686.0
232.0,31.0,-123.0,87.0,-141.0,-10.0,-48.0,725.0
-474.0,20.0,-116.0,78.0,-144.0,-19.0,-67.0,723.0
-1025.0,149.0,-118.0,77.0,-149.0,9.0,-64.0,742.0
-962.0,130.0,-100.0,61.0,-176.0,56.0,-74.0,751.0
-480.0,52.0,-105.0,38.0,-177.0,62.0,-98.0,760.0
-262.0,49.0,-114.0,43.0,-162.0,86.0,-88.0,798.0
-158.0,7.0,-82.0,32.0,-190.0,99.0,-68.0,751.0
-288.0,71.0,-52.0,12.0,-228.0,71.0,-80.0,742.0
-286.0,7.0,-51.0,16.0,-299.0,32.0,-82.0,725.0
-277.0,-47.0,-39.0,16.0,-291.0,-27.0,-43.0,680.0
-315.0,-21.0,-22.0,32.0,-205.0,-32.0,-27.0,662.0
-444.0,-14.0,4.0,40.0,-152.0,40.0,-12.0,666.0
-1235.0,-12.0,-13.0,20.0,-140.0,54.0,-11.0,612.0
-1544.0,-32.0,-14.0,12.0,-190.0,26.0,-1.0,536.0
-385.0,-24.0,28.0,-2.0,-245.0,4.0,-32.0,491.0
521.0,-6.0,15.0,2.0,-295.0,-16.0,-27.0,453.0
994.0,22.0,17.0,12.0,-328.0,-6.0,-56.0,432.0
1291.0,35.0,19.0,-16.0,-356.0,-68.0,-93.0,395.0
950.0,19.0,33.0,-40.0,-392.0,-47.0,-76.0,357.0
701.0,-5.0,-3.0,-43.0,-418.0,-11.0,-127.0,304.0
300.0,-9.0,-32.0,-34.0,-473.0,-94.0,-90.0,239.0
98.0,-30.0,8.0,-39.0,-551.0,-97.0,-84.0,228.0
-9.0,-64.0,8.0,-64.0,-665.0,-116.0,-92.0,213.0
-65.0,-91.0,20.0,-63.0,-734.0,-152.0,-65.0,165.0
-46.0,-131.0,23.0,-37.0,-738.0,-149.0,-51.0,147.0
-96.0,-82.0,18.0,-36.0,-728.0,-139.0,-6.0,138.0
-179.0,-49.0,26.0,-24.0,-687.0,-124.0,-8.0,109.0
-302.0,-12.0,20.0,-41.0,-652.0,-76.0,-7.0,78.0
-280.0,39.0,31.0,-50.0,-537.0,-85.0,24.0,68.0
-201.0,26.0,9.0,-17.0,-517.0,-104.0,58.0,41.0
-107.0,49.0,31.0,-23.0,-547.0,-64.0,104.0,-2.0
-277.0,33.0,29.0,-29.0,-616.0,-82.0,82.0,-27.0
-476.0,47.0,15.0,-3.0,-669.0,-91.0,103.0,-66.0
-331.0,45.0,41.0,-14.0,-621.0,-98.0,159.0,-72.0
-46.0,116.0,15.0,-17.0,-679.0,-84.0,183.0,-65.0
36.0,363.0,42.0,13.0,-723.0,6.0,220.0,-83.0
204.0,469.0,70.0,8.0,-712.0,5.0,203.0,-147.0
268.0,363.0,43.0,16.0,-686.0,-8.0,183.0,-193.0
249.0,148.0,39.0,5.0,-653.0,-13.0,183.0,-247.0
222.0,-34.0,27.0,-6.0,-631.0,10.0,178.0,-301.0
92.0,-193.0,21.0,-23.0,-595.0,61.0,178.0,-358.0
90.0,-273.0,10.0,-25.0,-556.0,50.0,141.0,-386.0
69.0,-293.0,30.0,8.0,-608.0,41.0,166.0,-325.0
74.0,-325.0,31.0,-13.0,-631.0,73.0,180.0,-362.0
24.0,-286.0,21.0,-17.0,-653.0,141.0,164.0,-370.0
-49.0,-275.0,6.0,-12.0,-653.0,176.0,167.0,-362.0
-93.0,-165.0,12.0,-17.0,-549.0,160.0,163.0,-404.0
-206.0,-38.0,10.0,-25.0,-459.0,140.0,171.0,-411.0
-445.0,-3.0,-14.0,-14.0,-395.0,203.0,156.0,-425.0
-271.0,51.0,7.0,-3.0,-360.0,176.0,146.0,-401.0
146.0,67.0,2.0,-21.0,-409.0,160.0,168.0,-447.0
265.0,105.0,4.0,-38.0,-408.0,155.0,165.0,-419.0
391.0,59.0,-8.0,-63.0,-419.0,81.0,143.0,-360.0
370.0,-36.0,-36.0,-40.0,-354.0,-15.0,129.0,-353.0
269.0,-47.0,-14.0,-36.0,-274.0,-108.0,110.0,-301.0
185.0,-55.0,-13.0,-47.0,-209.0,-28.0,120.0,-293.0
100.0,-43.0,-6.0,-29.0,-126.0,107.0,102.0,-262.0
13.0,-37.0,12.0,-19.0,-111.0,126.0,83.0,-240.0
-128.0,9.0,8.0,-15.0,-46.0,124.0,94.0,-246.0
-296.0,87.0,-2.0,-16.0,64.0,104.0,80.0,-274.0
-396.0,78.0,-11.0,2.0,210.0,49.0,79.0,-323.0
-255.0,1.0,-8.0,10.0,269.0,64.0,71.0,-340.0
-122.0,125.0,-18.0,-6.0,270.0,31.0,74.0,-324.0
-89.0,338.0,-30.0,4.0,270.0,82.0,68.0,-312.0
-44.0,327.0,-36.0,-5.0,237.0,183.0,48.0,-305.0
7.0,233.0,-33.0,1.0,273.0,155.0,76.0,-262.0
29.0,262.0,-28.0,-17.0,282.0,103.0,100.0,-252.0
37.0,316.0,-2.0,-52.0,358.0,100.0,93.0,-283.0
17.0,260.0,6.0,-35.0,415.0,130.0,48.0,-273.0
-7.0,-2.0,-13.0,-32.0,389.0,153.0,50.0,-280.0
-3.0,-216.0,7.0,-23.0,367.0,175.0,65.0,-338.0
6.0,-207.0,9.0,-28.0,306.0,178.0,39.0,-362.0
35.0,-157.0,-6.0,-28.0,247.0,155.0,45.0,-366.0
21.0,-166.0,10.0,-26.0,207.0,158.0,47.0,-401.0
0.0,-89.0,-11.0,-14.0,113.0,149.0,36.0,-411.0
30.0,-142.0,0.0,-2.0,0.0,110.0,41.0,-392.0
32.0,-325.0,9.0,-15.0,-65.0,40.0,35.0,-407.0
30.0,-258.0,27.0,-15.0,-105.0,38.0,8.0,-370.0
69.0,-196.0,20.0,7.0,-107.0,111.0,-26.0,-362.0
92.0,-24.0,9.0,5.0,-81.0,78.0,12.0,-385.0
42.0,217.0,-22.0,-5.0,-3.0,48.0,21.0,-395.0
-5.0,269.0,-43.0,10.0,83.0,56.0,5.0,-395.0
21.0,258.0,-10.0,-6.0,147.0,88.0,33.0,-360.0
29.0,103.0,-21.0,-7.0,244.0,45.0,42.0,-401.0
30.0,105.0,-8.0,1.0,325.0,25.0,49.0,-484.0
30.0,247.0,-11.0,-17.0,428.0,42.0,15.0,-496.0
10.0,164.0,-40.0,-46.0,505.0,-36.0,18.0,-488.0
-7.0,115.0,-4.0,-33.0,562.0,2.0,59.0,-514.0
-48.0,48.0,2.0,7.0,618.0,56.0,44.0,-514.0
-80.0,-32.0,-24.0,-28.0,635.0,28.0,40.0,-529.0
-112.0,-139.0,-32.0,-26.0,666.0,42.0,38.0,-557.0
-157.0,-310.0,-25.0,-21.0,725.0,74.0,7.0,-575.0
-131.0,10.0,-6.0,-34.0,815.0,137.0,-15.0,-594.0
-69.0,457.0,-14.0,0.0,831.0,130.0,-13.0,-592.0
-15.0,335.0,-21.0,-12.0,896.0,66.0,9.0,-562.0
12.0,-73.0,-10.0,-5.0,961.0,54.0,2.0,-555.0
24.0,-65.0,0.0,20.0,1032.0,23.0,-6.0,-553.0
11.0,-112.0,23.0,2.0,1091.0,83.0,0.0,-534.0
-65.0,-234.0,24.0,-9.0,1069.0,145.0,5.0,-525.0
-64.0,1.0,7.0,-19.0,1005.0,145.0,-4.0,-522.0
-24.0,-125.0,20.0,-16.0,902.0,172.0,5.0,-534.0
-41.0,-440.0,15.0,-19.0,801.0,194.0,18.0,-553.0
-51.0,-705.0,-5.0,2.0,721.0,171.0,15.0,-583.0
-17.0,-606.0,-17.0,-21.0,668.0,113.0,10.0,-562.0
67.0,-78.0,-20.0,-33.0,692.0,90.0,13.0,-482.0
108.0,176.0,-8.0,-34.0,771.0,68.0,22.0,-400.0
67.0,87.0,10.0,-27.0,882.0,95.0,13.0,-341.0
89.0,38.0,22.0,-9.0,1012.0,88.0,37.0,-259.0
177.0,190.0,7.0,-26.0,1059.0,79.0,6.0,-191.0
150.0,420.0,-3.0,-17.0,1071.0,67.0,-18.0,-137.0
42.0,273.0,-25.0,-12.0,1077.0,64.0,-32.0,-96.0
0.0,33.0,-11.0,12.0,1118.0,90.0,-13.0,-111.0
-89.0,-482.0,9.0,-1.0,1156.0,58.0,9.0,-105.0
-99.0,-793.0,-10.0,-12.0,1213.0,45.0,-12.0,-67.0
-43.0,9.0,-13.0,22.0,1313.0,21.0,25.0,-43.0
-76.0,556.0,-13.0,1.0,1445.0,61.0,21.0,-40.0
-43.0,428.0,-6.0,-14.0,1629.0,81.0,4.0,-14.0
30.0,334.0,7.0,-15.0,1721.0,54.0,2.0,70.0
18.0,506.0,-22.0,-3.0,1769.0,83.0,-1.0,176.0
-9.0,1423.0,-27.0,3.0,1824.0,81.0,3.0,247.0
-37.0,1636.0,-2.0,-3.0,1855.0,95.0,-18.0,239.0
-44.0,595.0,9.0,3.0,1800.0,115.0,-8.0,286.0
-5.0,319.0,-3.0,-11.0,1734.0,110.0,-15.0,341.0
-8.0,-302.0,-8.0,-28.0,1657.0,107.0,-51.0,361.0
60.0,-663.0,20.0,-29.0,1452.0,89.0,-36.0,384.0
68.0,-456.0,12.0,-27.0,1188.0,101.0,-30.0,336.0
11.0,-1067.0,-3.0,-18.0,1006.0,148.0,-69.0,355.0
-75.0,-1464.0,-13.0,-29.0,869.0,142.0,-75.0,367.0
-98.0,-1800.0,-5.0,-39.0,748.0,163.0,-41.0,369.0
21.0,-1487.0,1.0,-34.0,635.0,162.0,-39.0,384.0
10.0,-527.0,-1.0,-30.0,497.0,166.0,-54.0,369.0
-1.0,477.0,-26.0,-32.0,273.0,202.0,-56.0,409.0
-52.0,1193.0,-15.0,-18.0,74.0,200.0,-47.0,410.0
-158.0,1116.0,7.0,-6.0,-99.0,174.0,-37.0,409.0
-90.0,681.0,-9.0,-8.0,-229.0,116.0,-7.0,413.0
-77.0,318.0,2.0,1.0,-225.0,109.0,-10.0,409.0
-131.0,-163.0,-7.0,-21.0,-229.0,57.0,-25.0,393.0
-71.0,-546.0,-12.0,-25.0,-281.0,-52.0,-12.0,377.0
-165.0,-830.0,-9.0,-6.0,-343.0,-63.0,-6.0,414.0
-213.0,-1030.0,5.0,-12.0,-374.0,-47.0,0.0,409.0
53.0,182.0,10.0,-22.0,-451.0,-55.0,-9.0,399.0
281.0,1843.0,-11.0,-32.0,-516.0,1.0,-8.0,474.0
269.0,1071.0,-16.0,-34.0,-537.0,30.0,-36.0,564.0
177.0,244.0,-30.0,-67.0,-659.0,38.0,-56.0,524.0
71.0,652.0,-28.0,-55.0,-681.0,70.0,-41.0,434.0
46.0,298.0,-16.0,-22.0,-769.0,73.0,-39.0,358.0
108.0,-53.0,-26.0,-54.0,-869.0,83.0,-67.0,230.0
27.0,-1002.0,-15.0,-41.0,-803.0,97.0,-42.0,210.0
-71.0,-1851.0,-24.0,-30.0,-730.0,107.0,-32.0,187.0
4.0,-1379.0,-29.0,-16.0,-640.0,81.0,-54.0,131.0
13.0,-920.0,-2.0,4.0,-556.0,81.0,-29.0,112.0
-110.0,-895.0,-13.0,-19.0,-547.0,96.0,-22.0,242.0
-84.0,-74.0,-17.0,-5.0,-551.0,100.0,-36.0,336.0
74.0,646.0,2.0,10.0,-556.0,100.0,-30.0,273.0
144.0,681.0,-20.0,-1.0,-547.0,79.0,-37.0,286.0
102.0,998.0,4.0,-7.0,-486.0,50.0,-25.0,239.0
-34.0,1423.0,-13.0,-1.0,-394.0,41.0,-14.0,163.0
-160.0,2462.0,-33.0,5.0,-251.0,62.0,-8.0,174.0
-245.0,3246.0,5.0,10.0,-135.0,30.0,21.0,236.0
-294.0,2364.0,8.0,11.0,-164.0,9.0,8.0,241.0
-258.0,648.0,-12.0,2.0,-183.0,22.0,24.0,218.0
-201.0,233.0,-7.0,18.0,-128.0,45.0,45.0,224.0
-124.0,1006.0,28.0,13.0,-75.0,23.0,20.0,184.0
-51.0,111.0,1.0,-6.0,-49.0,32.0,42.0,198.0
72.0,-2708.0,-11.0,-3.0,27.0,56.0,42.0,187.0
192.0,-3489.0,7.0,-31.0,80.0,54.0,19.0,174.0
135.0,-3448.0,-18.0,-44.0,43.0,73.0,41.0,141.0
247.0,-2320.0,-23.0,-22.0,56.0,20.0,49.0,98.0
342.0,-566.0,-28.0,-30.0,85.0,34.0,46.0,119.0
215.0,-1074.0,-13.0,-26.0,49.0,31.0,50.0,202.0
187.0,-1444.0,17.0,-38.0,37.0,-6.0,35.0,384.0
90.0,-1246.0,-10.0,-17.0,17.0,3.0,61.0,384.0
42.0,-1025.0,8.0,-30.0,22.0,-39.0,72.0,243.0
-8.0,-1030.0,-11.0,-48.0,8.0,-62.0,50.0,349.0
-29.0,-830.0,-26.0,-18.0,-95.0,-95.0,80.0,342.0
-48.0,-541.0,-12.0,-25.0,-164.0,-106.0,69.0,148.0
-132.0,-204.0,-20.0,-6.0,-181.0,-53.0,79.0,-9.0
-152.0,453.0,10.0,-9.0,-155.0,-65.0,78.0,-323.0
-131.0,1029.0,2.0,-4.0,-86.0,-56.0,35.0,-413.0
-108.0,1258.0,-15.0,-36.0,-91.0,-58.0,68.0,-136.0
24.0,1187.0,17.0,-29.0,-175.0,-66.0,55.0,-70.0
-52.0,1051.0,33.0,-17.0,-222.0,-82.0,47.0,-273.0
-424.0,729.0,3.0,-34.0,-317.0,-76.0,66.0,-348.0
-157.0,696.0,-2.0,-12.0,-400.0,-45.0,78.0,-111.0
7.0,794.0,-9.0,-30.0,-443.0,-81.0,101.0,85.0
-388.0,696.0,-10.0,-10.0,-464.0,-69.0,76.0,56.0
-196.0,648.0,2.0,-3.0,-395.0,-37.0,80.0,94.0
553.0,663.0,-2.0,8.0,-332.0,-32.0,81.0,54.0
680.0,631.0,-3.0,-3.0,-282.0,-56.0,71.0,12.0
-412.0,601.0,-15.0,-34.0,-311.0,-81.0,87.0,44.0
-516.0,587.0,10.0,-19.0,-299.0,-78.0,84.0,38.0
1319.0,527.0,0.0,-38.0,-295.0,-85.0,50.0,69.0
1767.0,435.0,-1.0,-44.0,-395.0,-124.0,59.0,51.0
1702.0,384.0,3.0,-41.0,-398.0,-110.0,63.0,20.0
1300.0,327.0,-11.0,-38.0,-379.0,-123.0,47.0,22.0
169.0,239.0,14.0,-2.0,-403.0,-113.0,59.0,21.0
-453.0,241.0,-12.0,3.0,-459.0,-92.0,38.0,5.0
-1152.0,239.0,-1.0,11.0,-547.0,-94.0,50.0,13.0
-1357.0,217.0,10.0,7.0,-608.0,-112.0,37.0,-11.0
-1495.0,190.0,-29.0,-9.0,-587.0,-98.0,44.0,-26.0
-1090.0,179.0,-24.0,-6.0,-531.0,-64.0,56.0,-13.0
-744.0,152.0,-9.0,-4.0,-490.0,-54.0,40.0,20.0
-654.0,49.0,-36.0,-13.0,-470.0,-47.0,42.0,25.0
-777.0,78.0,-28.0,-9.0,-470.0,-15.0,15.0,16.0
-763.0,36.0,2.0,-9.0,-459.0,57.0,-3.0,36.0
-518.0,-40.0,-3.0,-41.0,-508.0,-8.0,25.0,18.0
-470.0,-78.0,16.0,-22.0,-614.0,-16.0,40.0,26.0
-698.0,-153.0,3.0,-33.0,-718.0,-24.0,2.0,40.0
-815.0,-151.0,5.0,-52.0,-775.0,-58.0,-4.0,51.0
196.0,-153.0,0.0,-32.0,-732.0,-7.0,8.0,37.0
537.0,-244.0,0.0,-38.0,-659.0,-3.0,29.0,29.0
447.0,-340.0,-9.0,-30.0,-596.0,4.0,31.0,106.0
195.0,-352.0,-29.0,-34.0,-502.0,24.0,38.0,41.0
180.0,-307.0,-10.0,-23.0,-413.0,50.0,37.0,-62.0
325.0,-324.0,-7.0,1.0,-393.0,13.0,25.0,-53.0
433.0,-429.0,3.0,0.0,-385.0,33.0,32.0,-77.0
1091.0,-537.0,9.0,15.0,-374.0,-6.0,24.0,-88.0
855.0,-562.0,2.0,15.0,-343.0,-80.0,31.0,-97.0
790.0,-362.0,-2.0,27.0,-295.0,-57.0,41.0,-105.0
393.0,-237.0,2.0,29.0,-227.0,34.0,51.0,-126.0
-132.0,-166.0,-6.0,-8.0,-187.0,98.0,33.0,-136.0
-698.0,-8.0,12.0,6.0,-155.0,75.0,35.0,-146.0
-2012.0,4.0,6.0,-10.0,-114.0,47.0,53.0,-177.0
-2155.0,-5.0,-14.0,-23.0,-177.0,12.0,50.0,-162.0
-691.0,83.0,-6.0,-15.0,-160.0,-55.0,43.0,-156.0
758.0,316.0,-13.0,-22.0,-99.0,-24.0,25.0,-192.0
2028.0,460.0,-9.0,-39.0,1.0,90.0,48.0,-175.0
3171.0,408.0,4.0,-59.0,80.0,77.0,73.0,-185.0
2545.0,217.0,-6.0,-33.0,17.0,58.0,52.0,-197.0
-1011.0,89.0,-7.0,-41.0,15.0,48.0,79.0,-200.0
-4000.0,49.0,-11.0,-42.0,88.0,56.0,73.0,-205.0
-2309.0,-90.0,-33.0,-37.0,171.0,30.0,71.0,-214.0
64.0,-218.0,-7.0,-26.0,46.0,32.0,91.0,-199.0
1246.0,-318.0,15.0,10.0,-253.0,42.0,59.0,-189.0
3573.0,-240.0,20.0,-10.0,-395.0,89.0,77.0,-207.0
3460.0,-89.0,-11.0,12.0,-484.0,100.0,93.0,-189.0
2093.0,-97.0,-1.0,40.0,-612.0,1.0,63.0,-192.0
-1298.0,-188.0,5.0,16.0,-665.0,-47.0,79.0,-163.0
-3294.0,-221.0,-6.0,2.0,-772.0,-159.0,99.0,-142.0
-2126.0,-176.0,-5.0,1.0,-862.0,-127.0,82.0,-124.0
-305.0,-112.0,-20.0,-11.0,-877.0,-37.0,54.0,-124.0
2518.0,-46.0,-2.0,-18.0,-812.0,62.0,40.0,-108.0
4000.0,-55.0,-15.0,-37.0,-734.0,90.0,38.0,-97.0
3460.0,-30.0,0.0,-34.0,-614.0,64.0,21.0,-114.0
1671.0,13.0,-21.0,-11.0,-417.0,66.0,6.0,-98.0
-637.0,34.0,-44.0,-30.0,-281.0,10.0,12.0,-105.0
-3376.0,22.0,-10.0,-36.0,-131.0,23.0,0.0,-85.0
-4000.0,-2.0,-15.0,-36.0,-31.0,-23.0,-12.0,-84.0
-4000.0,-13.0,2.0,-44.0,105.0,-22.0,-8.0,-105.0
-3218.0,-19.0,6.0,-41.0,277.0,-116.0,13.0,-75.0
-20.0,-16.0,3.0,-57.0,403.0,-122.0,-4.0,-43.0
3039.0,34.0,-31.0,-50.0,454.0,-50.0,-15.0,-27.0
4000.0,74.0,-4.0,-28.0,509.0,-59.0,13.0,1.0
477.0,95.0,11.0,-15.0,692.0,-45.0,20.0,30.0
-4000.0,190.0,13.0,-19.0,778.0,-95.0,25.0,131.0
-4000.0,275.0,16.0,-6.0,888.0,-97.0,26.0,213.0
-1214.0,321.0,6.0,12.0,994.0,-71.0,30.0,153.0
4000.0,290.0,49.0,8.0,1063.0,-52.0,47.0,141.0
4000.0,163.0,21.0,12.0,1026.0,-26.0,31.0,122.0
4000.0,5.0,18.0,18.0,902.0,44.0,46.0,3.0
4000.0,-89.0,34.0,25.0,831.0,38.0,64.0,-58.0
2874.0,-26.0,27.0,6.0,680.0,-1.0,64.0,-68.0
-1076.0,95.0,18.0,9.0,597.0,-14.0,39.0,-109.0
-2179.0,121.0,7.0,15.0,725.0,13.0,28.0,-101.0
-3099.0,48.0,-1.0,-2.0,856.0,110.0,14.0,70.0
-1947.0,-44.0,-21.0,-7.0,856.0,74.0,24.0,156.0
538.0,-77.0,11.0,-8.0,831.0,78.0,40.0,106.0
847.0,-74.0,3.0,27.0,944.0,45.0,20.0,196.0
758.0,-101.0,2.0,20.0,1075.0,15.0,-1.0,235.0
202.0,-98.0,-11.0,-19.0,1083.0,19.0,-10.0,172.0
-1001.0,-62.0,-17.0,-15.0,1032.0,32.0,1.0,129.0
-2452.0,-32.0,-23.0,-11.0,1026.0,56.0,-19.0,144.0
-3376.0,-97.0,-37.0,-12.0,997.0,26.0,-33.0,142.0
-2610.0,-182.0,-16.0,-18.0,1010.0,58.0,-33.0,125.0
-869.0,-199.0,-22.0,-12.0,1059.0,54.0,-11.0,157.0
1384.0,-196.0,-14.0,2.0,997.0,93.0,-21.0,162.0
3378.0,-106.0,-15.0,3.0,1018.0,107.0,-8.0,142.0
3525.0,-56.0,-6.0,8.0,1156.0,80.0,4.0,89.0
2545.0,26.0,-8.0,8.0,1163.0,49.0,-11.0,91.0
603.0,129.0,-26.0,32.0,1083.0,74.0,-6.0,102.0
-582.0,105.0,7.0,25.0,941.0,79.0,-15.0,67.0
-1735.0,46.0,7.0,30.0,751.0,18.0,-23.0,60.0
-2631.0,0.0,1.0,16.0,664.0,10.0,-41.0,49.0
-2254.0,20.0,9.0,-22.0,561.0,6.0,-26.0,35.0
-1769.0,-15.0,-12.0,-41.0,367.0,9.0,-28.0,14.0
-1260.0,23.0,6.0,-61.0,157.0,10.0,-3.0,29.0
-850.0,99.0,7.0,-71.0,-8.0,19.0,13.0,-22.0
-737.0,95.0,-18.0,-59.0,-94.0,1.0,-15.0,-16.0
-973.0,147.0,-33.0,-64.0,-183.0,1.0,-25.0,17.0
-645.0,251.0,-38.0,-89.0,-333.0,-8.0,-16.0,-40.0
-802.0,334.0,-29.0,-69.0,-383.0,-8.0,1.0,-50.0
-1075.0,294.0,-22.0,-61.0,-291.0,24.0,-35.0,-72.0
-351.0,135.0,-34.0,-68.0,-356.0,13.0,-42.0,-101.0
346.0,16.0,-2.0,-40.0,-523.0,36.0,-10.0,-166.0
725.0,-23.0,-4.0,-24.0,-652.0,56.0,-22.0,-220.0
473.0,-49.0,-16.0,-13.0,-730.0,8.0,-19.0,-155.0
-313.0,-47.0,-1.0,-8.0,-665.0,-6.0,6.0,-146.0
-675.0,-28.0,-25.0,0.0,-621.0,-19.0,1.0,-183.0
-138.0,-70.0,-14.0,15.0,-653.0,-73.0,-4.0,-166.0
190.0,-121.0,-6.0,12.0,-673.0,-2.0,5.0,-206.0
775.0,-120.0,-4.0,6.0,-791.0,11.0,3.0,-205.0
1356.0,-115.0,-9.0,6.0,-856.0,-71.0,8.0,-194.0
1364.0,-139.0,-26.0,-2.0,-808.0,-74.0,1.0,-202.0
465.0,-159.0,-23.0,-15.0,-837.0,-84.0,2.0,-207.0
-1552.0,-133.0,-11.0,-11.0,-1039.0,-108.0,11.0,-228.0
-2505.0,-109.0,-18.0,-20.0,-1251.0,-84.0,20.0,-235.0
-1950.0,-94.0,-14.0,-36.0,-1439.0,-49.0,39.0,-254.0
514.0,-60.0,5.0,-7.0,-1573.0,-33.0,18.0,-262.0
2396.0,0.0,-14.0,-9.0,-1552.0,5.0,20.0,-278.0
2545.0,22.0,-28.0,-22.0,-1528.0,-53.0,46.0,-234.0
2857.0,48.0,-7.0,-2.0,-1515.0,-115.0,33.0,-248.0
2092.0,77.0,-4.0,4.0,-1534.0,-156.0,24.0,-240.0
908.0,47.0,-18.0,-1.0,-1463.0,-188.0,35.0,-180.0
-32.0,4.0,5.0,1.0,-1259.0,-108.0,29.0,-189.0
-436.0,-57.0,28.0,-15.0,-1039.0,-106.0,26.0,-183.0
-698.0,-32.0,19.0,6.0,-818.0,-84.0,48.0,-183.0
-909.0,53.0,-1.0,20.0,-665.0,-62.0,33.0,-158.0
-765.0,57.0,9.0,-12.0,-454.0,-97.0,23.0,-164.0
-607.0,106.0,-11.0,-10.0,-295.0,-94.0,34.0,-213.0
-483.0,147.0,-13.0,8.0,-203.0,-87.0,37.0,-223.0
-473.0,109.0,14.0,9.0,-58.0,-86.0,61.0,-136.0
-283.0,86.0,-8.0,7.0,97.0,-140.0,50.0,-83.0
-457.0,126.0,-22.0,-8.0,263.0,-90.0,50.0,-105.0
-610.0,197.0,-1.0,2.0,361.0,-49.0,73.0,-75.0
-740.0,72.0,-4.0,6.0,459.0,-44.0,59.0,-98.0
-590.0,-33.0,-17.0,3.0,546.0,16.0,50.0,-98.0
-129.0,64.0,2.0,-12.0,627.0,23.0,51.0,-104.0
86.0,54.0,0.0,-23.0,758.0,27.0,48.0,-13.0
412.0,117.0,11.0,7.0,823.0,48.0,56.0,131.0
465.0,128.0,16.0,20.0,920.0,76.0,50.0,96.0
418.0,73.0,2.0,18.0,994.0,87.0,53.0,3.0
330.0,1.0,31.0,29.0,1018.0,107.0,73.0,-26.0
256.0,-259.0,36.0,23.0,1148.0,102.0,73.0,-82.0
394.0,-247.0,5.0,-5.0,1313.0,66.0,59.0,-124.0
660.0,-162.0,-14.0,-14.0,1409.0,15.0,61.0,-136.0
755.0,-108.0,24.0,1.0,1482.0,8.0,81.0,-296.0
650.0,-35.0,19.0,0.0,1527.0,83.0,61.0,-341.0
560.0,-111.0,9.0,15.0,1539.0,183.0,63.0,-83.0
235.0,-42.0,9.0,47.0,1525.0,241.0,66.0,128.0
176.0,22.0,-12.0,-9.0,1539.0,220.0,43.0,182.0
-206.0,-42.0,5.0,-19.0,1591.0,217.0,14.0,196.0
-673.0,-88.0,-29.0,-8.0,1592.0,172.0,23.0,259.0
-844.0,-196.0,-33.0,-25.0,1601.0,16.0,32.0,349.0
-801.0,-120.0,-18.0,-36.0,1539.0,-51.0,34.0,296.0
-409.0,14.0,-9.0,-39.0,1473.0,-36.0,54.0,269.0
-233.0,54.0,-27.0,-42.0,1352.0,-66.0,72.0,242.0
-159.0,-28.0,-20.0,-51.0,1279.0,-116.0,94.0,247.0
228.0,-152.0,-4.0,-49.0,1263.0,-146.0,78.0,377.0
370.0,-42.0,-15.0,-42.0,1279.0,-49.0,61.0,409.0
92.0,74.0,-5.0,-39.0,1248.0,21.0,58.0,377.0
-974.0,164.0,-25.0,-48.0,1189.0,135.0,54.0,355.0
-2708.0,159.0,17.0,-48.0,1124.0,229.0,45.0,373.0
-1720.0,205.0,-10.0,-54.0,1018.0,236.0,63.0,426.0
112.0,355.0,-23.0,-63.0,953.0,189.0,56.0,442.0
543.0,355.0,-25.0,-50.0,823.0,118.0,64.0,474.0
1116.0,241.0,-22.0,-25.0,680.0,145.0,78.0,474.0
1189.0,140.0,3.0,2.0,531.0,70.0,48.0,453.0
1146.0,-14.0,-22.0,2.0,373.0,31.0,12.0,470.0
854.0,-128.0,-14.0,2.0,265.0,-26.0,6.0,474.0
790.0,-121.0,-7.0,16.0,171.0,-39.0,13.0,467.0
725.0,-142.0,10.0,8.0,72.0,10.0,-16.0,521.0
633.0,-118.0,-13.0,-9.0,-45.0,24.0,-12.0,531.0
490.0,-95.0,24.0,1.0,-125.0,44.0,10.0,515.0
163.0,-44.0,26.0,-6.0,-193.0,67.0,11.0,547.0
47.0,-60.0,-5.0,-13.0,-251.0,93.0,13.0,547.0
-375.0,-74.0,15.0,-25.0,-314.0,54.0,-10.0,530.0
-649.0,-63.0,-18.0,-56.0,-409.0,99.0,-31.0,544.0
-815.0,-96.0,-42.0,-61.0,-470.0,172.0,-54.0,555.0
-714.0,-131.0,-23.0,-56.0,-566.0,210.0,-55.0,550.0
-691.0,-159.0,-10.0,-48.0,-734.0,180.0,-62.0,556.0
-584.0,-142.0,-30.0,-30.0,-860.0,87.0,-72.0,606.0
-392.0,-95.0,-5.0,-33.0,-942.0,-35.0,-72.0,629.0
-368.0,-49.0,7.0,-40.0,-977.0,-49.0,-101.0,628.0
-166.0,-53.0,-26.0,-42.0,-995.0,-77.0,-84.0,569.0
46.0,-16.0,-16.0,-31.0,-1007.0,-71.0,-68.0,556.0
68.0,-29.0,10.0,15.0,-1055.0,0.0,-69.0,591.0
-8.0,-66.0,-6.0,13.0,-1105.0,-85.0,-72.0,606.0
95.0,-21.0,-9.0,-9.0,-1137.0,-97.0,-98.0,590.0
121.0,-4.0,-16.0,-1.0,-1105.0,-156.0,-110.0,580.0
192.0,34.0,-24.0,-1.0,-1064.0,-106.0,-97.0,590.0
147.0,43.0,15.0,-18.0,-1120.0,-72.0,-112.0,591.0
70.0,27.0,2.0,-8.0,-1129.0,-68.0,-89.0,629.0
103.0,26.0,-13.0,-20.0,-1124.0,13.0,-68.0,629.0
122.0,40.0,-14.0,-32.0,-1108.0,-19.0,-56.0,648.0
247.0,60.0,-28.0,-16.0,-1105.0,35.0,-55.0,635.0
310.0,48.0,24.0,-46.0,-1078.0,-30.0,-76.0,629.0
371.0,41.0,-5.0,-49.0,-1071.0,-71.0,-60.0,612.0
303.0,5.0,-8.0,-59.0,-1007.0,-139.0,-58.0,550.0
104.0,-2.0,5.0,-36.0,-947.0,-206.0,-67.0,550.0
-55.0,33.0,-40.0,-46.0,-928.0,-175.0,-58.0,497.0
107.0,72.0,-9.0,-31.0,-909.0,-133.0,-17.0,467.0
133.0,95.0,1.0,-11.0,-883.0,-82.0,-2.0,432.0
66.0,95.0,-14.0,-22.0,-788.0,-50.0,12.0,387.0
80.0,65.0,-17.0,10.0,-679.0,51.0,-18.0,367.0
5.0,18.0,4.0,2.0,-556.0,154.0,12.0,304.0
-5.0,0.0,30.0,16.0,-486.0,141.0,50.0,290.0
-100.0,-88.0,14.0,23.0,-474.0,47.0,4.0,226.0
-80.0,-104.0,21.0,-1.0,-486.0,13.0,12.0,123.0
-89.0,-57.0,26.0,-5.0,-547.0,-91.0,2.0,61.0
-53.0,-69.0,33.0,12.0,-528.0,-189.0,15.0,43.0
-4.0,-73.0,13.0,19.0,-566.0,-101.0,46.0,33.0
-73.0,-28.0,11.0,-32.0,-650.0,-37.0,61.0,18.0
-138.0,54.0,5.0,-18.0,-698.0,-40.0,84.0,23.0
-147.0,130.0,-7.0,-4.0,-744.0,-14.0,51.0,1.0
-171.0,152.0,14.0,-42.0,-775.0,27.0,72.0,-41.0
-125.0,170.0,2.0,-22.0,-751.0,81.0,85.0,-65.0
-39.0,130.0,14.0,-36.0,-718.0,78.0,73.0,-89.0
-52.0,56.0,3.0,-30.0,-681.0,44.0,102.0,-148.0
15.0,33.0,28.0,-11.0,-631.0,-8.0,103.0,-179.0
4.0,5.0,-5.0,-47.0,-616.0,-81.0,125.0,-193.0
27.0,0.0,-28.0,-34.0,-631.0,-3.0,103.0,-229.0
27.0,-10.0,-11.0,-1.0,-687.0,40.0,88.0,-262.0
4.0,-83.0,-17.0,-21.0,-746.0,21.0,126.0,-265.0
3.0,-72.0,-6.0,-26.0,-812.0,70.0,131.0,-284.0
-10.0,12.0,-26.0,2.0,-857.0,38.0,120.0,-345.0
20.0,-7.0,-26.0,-10.0,-803.0,76.0,120.0,-359.0
1.0,70.0,-24.0,-9.0,-803.0,80.0,137.0,-389.0
-31.0,173.0,-24.0,-9.0,-803.0,19.0,116.0,-424.0
-51.0,162.0,-28.0,-20.0,-795.0,-12.0,89.0,-424.0
-66.0,170.0,-6.0,5.0,-837.0,-55.0,77.0,-431.0
-60.0,241.0,-6.0,-30.0,-862.0,-25.0,85.0,-441.0
-36.0,802.0,1.0,-20.0,-877.0,27.0,74.0,-452.0
-14.0,1234.0,11.0,-1.0,-856.0,50.0,77.0,-476.0
-19.0,672.0,-2.0,-41.0,-818.0,54.0,100.0,-508.0
-43.0,-102.0,-5.0,-16.0,-751.0,39.0,91.0,-496.0
31.0,-757.0,0.0,9.0,-686.0,13.0,84.0,-492.0
52.0,-1008.0,-6.0,12.0,-596.0,46.0,94.0,-454.0
48.0,-901.0,-5.0,16.0,-486.0,8.0,93.0,-443.0
30.0,-497.0,10.0,23.0,-421.0,-26.0,64.0,-449.0
-48.0,-137.0,-12.0,15.0,-333.0,110.0,50.0,-380.0
-65.0,-128.0,-33.0,-18.0,-295.0,144.0,46.0,-386.0
-49.0,-89.0,-28.0,-45.0,-225.0,90.0,40.0,-392.0
-28.0,-338.0,-24.0,-61.0,-156.0,54.0,29.0,-394.0
-21.0,-94.0,-28.0,-72.0,-126.0,67.0,38.0,-425.0
-16.0,182.0,-18.0,-53.0,-12.0,95.0,27.0,-443.0
-49.0,-19.0,-28.0,-59.0,88.0,77.0,27.0,-389.0
-53.0,-239.0,-20.0,-40.0,159.0,183.0,72.0,-360.0
-41.0,-462.0,-15.0,12.0,200.0,160.0,40.0,-411.0
-32.0,-535.0,-30.0,-13.0,241.0,64.0,41.0,-407.0
-40.0,-369.0,-10.0,-23.0,285.0,-27.0,37.0,-425.0
-45.0,-140.0,-16.0,-15.0,310.0,-51.0,13.0,-423.0
-14.0,-192.0,6.0,-10.0,351.0,31.0,43.0,-385.0
-16.0,-188.0,-9.0,-1.0,367.0,99.0,34.0,-417.0
9.0,-179.0,1.0,-10.0,427.0,180.0,40.0,-394.0
23.0,17.0,5.0,-10.0,525.0,152.0,24.0,-362.0
-12.0,225.0,-6.0,-17.0,626.0,134.0,1.0,-327.0
-30.0,256.0,-3.0,-23.0,691.0,200.0,-5.0,-370.0
-29.0,338.0,-3.0,2.0,725.0,246.0,-2.0,-389.0
-21.0,347.0,-2.0,-5.0,766.0,246.0,0.0,-315.0
-30.0,640.0,-17.0,4.0,804.0,319.0,-19.0,-327.0
-32.0,1128.0,-18.0,12.0,794.0,328.0,1.0,-325.0
-1.0,1173.0,-4.0,-13.0,794.0,283.0,-22.0,-305.0
-11.0,790.0,-4.0,18.0,857.0,328.0,-25.0,-206.0
-40.0,253.0,-24.0,-5.0,876.0,259.0,-7.0,-139.0
-61.0,-318.0,-30.0,-6.0,866.0,197.0,-13.0,-200.0
-8.0,-258.0,-22.0,7.0,882.0,143.0,7.0,-305.0
-20.0,-244.0,-5.0,16.0,908.0,94.0,-16.0,-457.0
-55.0,17.0,13.0,8.0,920.0,83.0,0.0,-553.0
-26.0,404.0,-3.0,-7.0,941.0,86.0,24.0,-555.0
0.0,-31.0,2.0,31.0,953.0,115.0,25.0,-541.0
93.0,-198.0,11.0,33.0,941.0,114.0,20.0,-507.0
130.0,-328.0,1.0,35.0,902.0,166.0,-8.0,-397.0
130.0,-183.0,24.0,34.0,823.0,183.0,-10.0,-221.0
56.0,172.0,1.0,18.0,794.0,209.0,-15.0,-133.0
9.0,-79.0,-10.0,-6.0,790.0,196.0,-4.0,-87.0
47.0,-419.0,-2.0,-1.0,758.0,138.0,12.0,-87.0
-12.0,-476.0,-18.0,-2.0,766.0,152.0,2.0,-295.0
4.0,-505.0,-6.0,-9.0,766.0,94.0,13.0,-288.0
6.0,-509.0,-20.0,1.0,766.0,92.0,33.0,-140.0
-5.0,-196.0,-1.0,-18.0,758.0,104.0,16.0,-196.0
-1.0,84.0,19.0,-19.0,741.0,74.0,21.0,-189.0
-28.0,55.0,10.0,-20.0,692.0,61.0,15.0,107.0
15.0,150.0,19.0,-21.0,664.0,23.0,7.0,187.0
13.0,189.0,19.0,-22.0,635.0,36.0,24.0,47.0
-16.0,67.0,5.0,-16.0,615.0,42.0,19.0,-168.0
-35.0,238.0,-2.0,-14.0,618.0,46.0,28.0,-477.0
-81.0,223.0,8.0,-15.0,607.0,41.0,43.0,-614.0
-77.0,355.0,-1.0,-8.0,562.0,13.0,49.0,-481.0
-56.0,607.0,0.0,-14.0,528.0,8.0,36.0,-254.0
-77.0,556.0,13.0,-23.0,536.0,-8.0,42.0,-496.0
-65.0,672.0,-1.0,-17.0,557.0,-38.0,44.0,-305.0
-67.0,713.0,1.0,9.0,542.0,20.0,47.0,84.0
-51.0,751.0,-1.0,-16.0,497.0,148.0,48.0,33.0
-12.0,628.0,-12.0,-30.0,424.0,166.0,25.0,100.0
-10.0,384.0,3.0,-28.0,310.0,110.0,45.0,71.0
-21.0,90.0,-13.0,-46.0,199.0,107.0,28.0,74.0
-45.0,-566.0,8.0,-34.0,128.0,167.0,29.0,93.0
-74.0,-901.0,5.0,-34.0,62.0,221.0,19.0,108.0
-20.0,-1342.0,-9.0,-26.0,47.0,227.0,13.0,148.0
30.0,-1277.0,15.0,-42.0,12.0,256.0,30.0,142.0
68.0,-765.0,16.0,-29.0,-39.0,268.0,56.0,157.0
114.0,-881.0,16.0,-19.0,-54.0,224.0,76.0,209.0
13.0,-749.0,15.0,-25.0,-116.0,225.0,61.0,226.0
-44.0,-541.0,34.0,-21.0,-70.0,155.0,65.0,142.0
6.0,-148.0,28.0,-23.0,-29.0,81.0,51.0,122.0
37.0,209.0,11.0,-36.0,0.0,40.0,31.0,119.0
97.0,-161.0,-6.0,-17.0,23.0,42.0,21.0,133.0
161.0,151.0,6.0,-8.0,17.0,50.0,10.0,145.0
96.0,705.0,-10.0,-40.0,31.0,62.0,27.0,131.0
56.0,1012.0,-14.0,-37.0,60.0,39.0,16.0,134.0
11.0,2039.0,-15.0,-18.0,125.0,-6.0,-1.0,239.0
-35.0,1526.0,-40.0,-23.0,225.0,-30.0,19.0,308.0
-73.0,111.0,-43.0,-22.0,310.0,-62.0,24.0,239.0
-127.0,-541.0,-45.0,-28.0,375.0,-86.0,31.0,271.0
-66.0,-771.0,-8.0,-22.0,403.0,-146.0,32.0,203.0
-18.0,-763.0,-28.0,-32.0,420.0,-94.0,31.0,153.0
29.0,-1090.0,-41.0,-40.0,429.0,-77.0,48.0,95.0
-39.0,-1139.0,-14.0,-42.0,396.0,-108.0,48.0,-117.0
-161.0,-18.0,-25.0,-33.0,379.0,-97.0,40.0,-251.0
-207.0,2335.0,-36.0,-44.0,420.0,-116.0,30.0,-472.0
-107.0,2421.0,-11.0,-39.0,440.0,-66.0,32.0,-293.0
-30.0,2419.0,-16.0,-22.0,454.0,-26.0,43.0,35.0
-53.0,3387.0,-12.0,-24.0,462.0,-7.0,59.0,-52.0
54.0,648.0,16.0,-22.0,440.0,37.0,61.0,-159.0
136.0,-1552.0,1.0,-17.0,440.0,76.0,53.0,-64.0
102.0,-2420.0,23.0,-21.0,469.0,78.0,39.0,156.0
59.0,-3537.0,5.0,-19.0,497.0,-14.0,30.0,189.0
27.0,-4000.0,1.0,-32.0,554.0,-4.0,33.0,275.0
-136.0,-4000.0,-1.0,-29.0,497.0,5.0,10.0,406.0
-146.0,-4000.0,-41.0,-11.0,432.0,-23.0,17.0,281.0
97.0,-3017.0,-22.0,-24.0,450.0,-25.0,15.0,203.0
235.0,-757.0,-8.0,6.0,460.0,-72.0,10.0,11.0
308.0,1234.0,-15.0,-16.0,535.0,-44.0,20.0,-165.0
235.0,1292.0,6.0,9.0,562.0,-32.0,28.0,-28.0
79.0,1012.0,30.0,10.0,570.0,-1.0,15.0,127.0
80.0,882.0,10.0,-33.0,602.0,83.0,13.0,-22.0
9.0,962.0,20.0,4.0,553.0,94.0,6.0,-223.0
-59.0,1181.0,5.0,-13.0,495.0,78.0,-1.0,153.0
-152.0,1057.0,11.0,3.0,438.0,41.0,17.0,406.0
-201.0,811.0,19.0,-25.0,390.0,22.0,-25.0,174.0
-155.0,420.0,18.0,-45.0,383.0,49.0,-16.0,18.0
-158.0,599.0,9.0,-35.0,393.0,-3.0,-6.0,-194.0
-109.0,1063.0,-22.0,-39.0,383.0,-64.0,-30.0,-40.0
-148.0,1226.0,-20.0,-15.0,450.0,-80.0,-12.0,409.0
-163.0,1051.0,-8.0,-5.0,586.0,-63.0,-15.0,383.0
-101.0,973.0,-1.0,12.0,651.0,9.0,-46.0,293.0
-15.0,1012.0,-21.0,-5.0,692.0,87.0,-31.0,286.0
51.0,859.0,-10.0,-3.0,725.0,155.0,-18.0,155.0
20.0,855.0,-13.0,11.0,706.0,129.0,-10.0,145.0
17.0,657.0,-22.0,-13.0,641.0,155.0,-6.0,102.0
35.0,273.0,-18.0,-4.0,575.0,250.0,2.0,107.0
89.0,244.0,-9.0,-6.0,586.0,262.0,25.0,160.0
104.0,598.0,-2.0,-1.0,602.0,180.0,15.0,271.0
24.0,598.0,-17.0,13.0,590.0,138.0,16.0,361.0
-236.0,333.0,-5.0,3.0,536.0,89.0,13.0,308.0
-582.0,21.0,-4.0,-4.0,460.0,17.0,6.0,326.0
-367.0,-444.0,-1.0,-21.0,390.0,-21.0,11.0,312.0
100.0,-665.0,-8.0,-24.0,385.0,9.0,19.0,399.0
330.0,-408.0,-28.0,-30.0,366.0,-52.0,13.0,686.0
412.0,233.0,-7.0,-47.0,310.0,-94.0,-12.0,778.0
306.0,652.0,-9.0,-54.0,282.0,95.0,29.0,583.0
174.0,506.0,-26.0,-30.0,136.0,180.0,39.0,478.0
83.0,6.0,-27.0,-16.0,-40.0,203.0,25.0,304.0
56.0,-757.0,-1.0,-14.0,-189.0,200.0,45.0,143.0
-153.0,-1342.0,0.0,-18.0,-291.0,199.0,56.0,95.0
-274.0,-1160.0,-11.0,-11.0,-343.0,209.0,71.0,-200.0
-128.0,-575.0,18.0,19.0,-379.0,195.0,73.0,-362.0
81.0,126.0,2.0,-17.0,-360.0,183.0,77.0,8.0
198.0,672.0,-30.0,-11.0,-343.0,111.0,37.0,392.0
97.0,557.0,-35.0,-6.0,-384.0,21.0,48.0,271.0
-144.0,395.0,-6.0,13.0,-440.0,-29.0,45.0,290.0
-359.0,404.0,6.0,4.0,-537.0,-22.0,11.0,222.0
-177.0,10.0,-2.0,-18.0,-637.0,-34.0,16.0,112.0
18.0,-288.0,2.0,-9.0,-730.0,-77.0,-6.0,42.0
80.0,-570.0,-8.0,-29.0,-798.0,-120.0,0.0,-194.0
111.0,-830.0,-11.0,-31.0,-818.0,-194.0,-3.0,112.0
137.0,-1073.0,-13.0,-55.0,-856.0,-281.0,-7.0,275.0
111.0,-728.0,-6.0,-50.0,-840.0,-271.0,-6.0,188.0
-258.0,80.0,2.0,-44.0,-877.0,-202.0,27.0,241.0
-951.0,158.0,-3.0,-40.0,-970.0,-159.0,16.0,160.0
-1081.0,309.0,-19.0,-25.0,-990.0,-216.0,-17.0,241.0
-457.0,217.0,-21.0,-21.0,-1049.0,-224.0,18.0,230.0
12.0,-20.0,-33.0,-18.0,-1064.0,-177.0,36.0,138.0
-203.0,-267.0,-38.0,-34.0,-1072.0,-200.0,50.0,169.0
-1856.0,-358.0,-1.0,-15.0,-1117.0,-224.0,28.0,112.0
-1947.0,-75.0,-14.0,-8.0,-1108.0,-247.0,13.0,158.0
305.0,10.0,-22.0,3.0,-1072.0,-151.0,31.0,196.0
2024.0,147.0,2.0,15.0,-1108.0,-66.0,31.0,196.0
3369.0,116.0,2.0,0.0,-1072.0,-55.0,40.0,182.0
3314.0,182.0,-2.0,-7.0,-1030.0,-78.0,27.0,119.0
2740.0,229.0,10.0,2.0,-1072.0,-100.0,33.0,43.0
1822.0,164.0,21.0,13.0,-1030.0,-131.0,38.0,75.0
779.0,187.0,14.0,9.0,-967.0,-135.0,43.0,148.0
201.0,125.0,21.0,20.0,-920.0,-131.0,54.0,90.0
-690.0,105.0,7.0,1.0,-902.0,-204.0,32.0,103.0
-1853.0,95.0,-6.0,-38.0,-877.0,-277.0,28.0,117.0
-2761.0,144.0,1.0,-11.0,-730.0,-354.0,30.0,142.0
-1882.0,110.0,1.0,4.0,-621.0,-286.0,25.0,188.0
-767.0,-53.0,4.0,-1.0,-643.0,-169.0,17.0,197.0
40.0,-65.0,-3.0,-22.0,-738.0,-118.0,13.0,247.0
843.0,-42.0,-6.0,-29.0,-883.0,-88.0,29.0,247.0
870.0,-81.0,-25.0,13.0,-999.0,-102.0,20.0,148.0
412.0,-105.0,-31.0,10.0,-1137.0,-120.0,39.0,43.0
-219.0,-101.0,-18.0,-17.0,-1253.0,-98.0,26.0,-19.0
-562.0,-112.0,-6.0,-1.0,-1202.0,-63.0,18.0,-56.0
-871.0,-107.0,-17.0,-29.0,-1055.0,-45.0,21.0,-89.0
-1300.0,-82.0,-28.0,4.0,-840.0,-40.0,17.0,-121.0
-1430.0,-88.0,-4.0,25.0,-803.0,-76.0,-6.0,-138.0
-1105.0,-77.0,-8.0,-6.0,-803.0,-83.0,1.0,-1.0
-979.0,-64.0,-18.0,-7.0,-686.0,-76.0,12.0,54.0
-370.0,-63.0,-43.0,-18.0,-580.0,-15.0,-8.0,4.0
499.0,-80.0,-42.0,-25.0,-398.0,-3.0,6.0,36.0
769.0,-67.0,-15.0,-15.0,-253.0,-19.0,19.0,22.0
1081.0,-18.0,2.0,-15.0,-140.0,-22.0,32.0,46.0
1116.0,18.0,19.0,-17.0,71.0,-14.0,22.0,-43.0
986.0,22.0,19.0,-36.0,273.0,17.0,19.0,-54.0
631.0,-16.0,-1.0,-38.0,438.0,12.0,20.0,-7.0
-816.0,-39.0,-17.0,-18.0,607.0,-63.0,2.0,-36.0
-3009.0,-106.0,-8.0,-48.0,699.0,-79.0,9.0,-6.0
-4000.0,-112.0,11.0,-30.0,766.0,-30.0,28.0,-11.0
-4000.0,-9.0,-14.0,-26.0,875.0,-7.0,36.0,-2.0
-1752.0,78.0,-10.0,-32.0,967.0,81.0,35.0,-68.0
1612.0,182.0,18.0,-3.0,998.0,85.0,17.0,-131.0
3495.0,143.0,11.0,0.0,947.0,49.0,33.0,-177.0
3052.0,77.0,27.0,19.0,961.0,73.0,40.0,-122.0
2157.0,71.0,23.0,12.0,987.0,83.0,29.0,-41.0
2614.0,4.0,24.0,19.0,1018.0,21.0,33.0,-44.0
2469.0,-38.0,2.0,8.0,938.0,-6.0,19.0,10.0
2211.0,-2.0,-11.0,16.0,852.0,2.0,28.0,53.0
-563.0,53.0,26.0,20.0,888.0,-17.0,38.0,123.0
-4000.0,73.0,5.0,4.0,876.0,78.0,12.0,61.0
-4000.0,44.0,-6.0,7.0,902.0,-41.0,17.0,-37.0
1051.0,20.0,10.0,-36.0,933.0,-42.0,30.0,-40.0
2003.0,56.0,-8.0,-43.0,857.0,119.0,21.0,-47.0
4000.0,95.0,4.0,-29.0,808.0,102.0,30.0,-49.0
4000.0,95.0,-6.0,-36.0,804.0,95.0,31.0,-65.0
4000.0,44.0,-22.0,-18.0,857.0,50.0,37.0,-83.0
3052.0,20.0,27.0,-7.0,1018.0,83.0,32.0,-86.0
961.0,5.0,8.0,-1.0,1097.0,138.0,35.0,-72.0
172.0,-7.0,-10.0,-28.0,1118.0,126.0,19.0,-66.0
-1148.0,-15.0,13.0,-33.0,1071.0,177.0,4.0,-53.0
-1604.0,-43.0,3.0,-27.0,961.0,184.0,25.0,-52.0
-2108.0,-72.0,-14.0,-26.0,961.0,172.0,40.0,-81.0
-1668.0,-71.0,-3.0,-32.0,953.0,175.0,35.0,-89.0
-1283.0,-69.0,15.0,-14.0,941.0,126.0,10.0,-113.0
-2505.0,-39.0,17.0,-8.0,837.0,167.0,23.0,-104.0
-4000.0,28.0,2.0,-8.0,701.0,230.0,36.0,-89.0
-4000.0,72.0,-5.0,-3.0,401.0,237.0,30.0,-117.0
-3693.0,115.0,10.0,-16.0,159.0,283.0,31.0,-122.0
-974.0,121.0,4.0,-7.0,39.0,276.0,43.0,-126.0
798.0,95.0,-8.0,-9.0,-34.0,271.0,28.0,-124.0
2067.0,34.0,-32.0,0.0,-6.0,220.0,51.0,-76.0
2127.0,34.0,-38.0,8.0,-8.0,124.0,76.0,-123.0
1999.0,38.0,-26.0,-2.0,125.0,34.0,51.0,-126.0
583.0,36.0,-15.0,1.0,338.0,-50.0,67.0,-94.0
-649.0,11.0,11.0,13.0,575.0,62.0,62.0,-114.0
-409.0,-18.0,-15.0,12.0,683.0,203.0,58.0,-87.0
212.0,-7.0,3.0,4.0,553.0,209.0,42.0,-111.0
-196.0,-22.0,37.0,5.0,260.0,226.0,25.0,-116.0
-3046.0,14.0,-3.0,-10.0,-12.0,217.0,31.0,-117.0
-4000.0,-74.0,24.0,-1.0,-17.0,220.0,24.0,-109.0
-3767.0,-89.0,6.0,-16.0,28.0,248.0,41.0,-111.0
-625.0,-24.0,-2.0,-16.0,27.0,217.0,27.0,-128.0
1690.0,-16.0,18.0,-29.0,-50.0,208.0,19.0,-101.0
4000.0,-40.0,-9.0,-38.0,-89.0,158.0,28.0,-135.0
4000.0,-55.0,-5.0,-17.0,-135.0,158.0,20.0,-136.0
4000.0,-11.0,-34.0,-34.0,-188.0,158.0,34.0,-134.0
2728.0,-52.0,-20.0,-40.0,-188.0,138.0,44.0,-130.0
994.0,-44.0,10.0,-38.0,-172.0,137.0,24.0,-143.0
-207.0,-21.0,3.0,-25.0,-295.0,77.0,20.0,-159.0
-1045.0,-23.0,12.0,-19.0,-468.0,93.0,13.0,-168.0
-1283.0,-68.0,7.0,-39.0,-543.0,2.0,0.0,-196.0
-2098.0,-131.0,-5.0,-38.0,-637.0,-59.0,1.0,-193.0
-4000.0,-42.0,-15.0,-42.0,-665.0,-13.0,-11.0,-215.0
-4000.0,38.0,-10.0,-75.0,-659.0,17.0,-10.0,-223.0
-3550.0,50.0,-10.0,-62.0,-658.0,21.0,-17.0,-232.0
1495.0,58.0,-20.0,-38.0,-647.0,-45.0,4.0,-245.0
4000.0,-14.0,-28.0,-36.0,-612.0,-80.0,-4.0,-274.0
4000.0,-49.0,-27.0,-30.0,-645.0,-98.0,-38.0,-257.0
4000.0,-88.0,-21.0,-55.0,-577.0,-125.0,-6.0,-234.0
4000.0,-107.0,-30.0,-29.0,-451.0,-159.0,-10.0,-227.0
3182.0,-59.0,-22.0,-11.0,-421.0,-154.0,-16.0,-232.0
1116.0,-31.0,-14.0,-13.0,-411.0,-75.0,2.0,-240.0
-205.0,25.0,-5.0,-6.0,-476.0,14.0,28.0,-192.0
-1567.0,96.0,21.0,-9.0,-621.0,29.0,39.0,-180.0
-1978.0,143.0,-1.0,-3.0,-934.0,8.0,41.0,-194.0
-1837.0,160.0,-27.0,-6.0,-1272.0,41.0,33.0,-175.0
-2024.0,143.0,-13.0,-15.0,-1703.0,-4.0,5.0,-189.0
-1931.0,78.0,-40.0,-1.0,-2094.0,-55.0,31.0,-206.0
-2126.0,99.0,-29.0,-5.0,-2318.0,-131.0,13.0,-197.0
-2761.0,133.0,-4.0,-17.0,-2421.0,-175.0,3.0,-196.0
-2708.0,94.0,-29.0,-21.0,-2409.0,-158.0,13.0,-183.0
-1918.0,74.0,-16.0,-10.0,-2344.0,-136.0,36.0,-206.0
-1019.0,49.0,-14.0,13.0,-2225.0,-98.0,53.0,-211.0
266.0,39.0,-15.0,-13.0,-2043.0,-154.0,12.0,-227.0
827.0,28.0,-18.0,-23.0,-1823.0,-175.0,48.0,-240.0
1038.0,32.0,-24.0,-9.0,-1626.0,-232.0,33.0,-226.0
986.0,18.0,-31.0,-46.0,-1455.0,-271.0,19.0,-232.0
627.0,-52.0,-34.0,-23.0,-1333.0,-240.0,61.0,-203.0
473.0,-41.0,-20.0,-22.0,-1188.0,-222.0,37.0,-197.0
424.0,46.0,-20.0,-37.0,-1007.0,-216.0,25.0,-192.0
489.0,68.0,-15.0,-37.0,-818.0,-276.0,19.0,-156.0
-18.0,-10.0,-15.0,-32.0,-598.0,-285.0,22.0,-137.0
-378.0,-66.0,-21.0,-34.0,-328.0,-258.0,-11.0,-138.0
-243.0,-77.0,-33.0,-48.0,-55.0,-204.0,-12.0,-118.0
125.0,-63.0,-9.0,-37.0,245.0,-148.0,25.0,-95.0
369.0,-37.0,16.0,-2.0,557.0,-110.0,40.0,-80.0
438.0,-23.0,13.0,-1.0,822.0,-63.0,42.0,-35.0
276.0,-38.0,6.0,9.0,1026.0,-7.0,27.0,-73.0
-25.0,-66.0,9.0,27.0,1204.0,18.0,28.0,-79.0
-212.0,-39.0,28.0,15.0,1352.0,-49.0,34.0,-50.0
-58.0,11.0,14.0,16.0,1509.0,-123.0,13.0,-54.0
245.0,-23.0,18.0,7.0,1629.0,-167.0,13.0,-43.0
123.0,-62.0,14.0,-1.0,1800.0,-289.0,37.0,-53.0
-176.0,-26.0,18.0,-1.0,1981.0,-313.0,19.0,-24.0
-1137.0,-10.0,40.0,-22.0,2060.0,-174.0,22.0,-31.0
-1337.0,-39.0,-5.0,-23.0,2124.0,-200.0,14.0,-22.0
-571.0,-75.0,-7.0,19.0,2124.0,-196.0,10.0,-16.0
-254.0,-82.0,-17.0,-5.0,2165.0,-182.0,-1.0,1.0
228.0,-65.0,3.0,-22.0,2165.0,-224.0,-2.0,6.0
45.0,-46.0,9.0,14.0,2165.0,-141.0,-10.0,-17.0
-700.0,1.0,-32.0,-7.0,2160.0,-82.0,-7.0,8.0
-261.0,27.0,-17.0,-2.0,2060.0,-28.0,14.0,13.0
798.0,111.0,-26.0,20.0,2019.0,2.0,-22.0,66.0
1384.0,323.0,10.0,19.0,1930.0,-65.0,12.0,116.0
1476.0,530.0,24.0,11.0,1865.0,-43.0,39.0,142.0
954.0,438.0,11.0,15.0,1821.0,57.0,25.0,163.0
471.0,-4.0,-12.0,12.0,1669.0,102.0,27.0,213.0
62.0,-253.0,-7.0,22.0,1539.0,155.0,47.0,265.0
-83.0,-383.0,-1.0,12.0,1397.0,138.0,15.0,252.0
177.0,-469.0,-1.0,-9.0,1201.0,136.0,12.0,224.0
39.0,-337.0,5.0,-13.0,1026.0,31.0,27.0,181.0
-392.0,-418.0,-7.0,-15.0,866.0,-35.0,17.0,184.0
-616.0,-403.0,12.0,-5.0,749.0,-19.0,27.0,212.0
-354.0,-77.0,3.0,-18.0,654.0,-41.0,16.0,230.0
-10.0,212.0,-6.0,-19.0,505.0,29.0,31.0,269.0
138.0,424.0,-13.0,-7.0,415.0,97.0,34.0,300.0
97.0,485.0,-2.0,-15.0,358.0,149.0,2.0,264.0
-181.0,363.0,-15.0,-24.0,260.0,140.0,15.0,271.0
-340.0,203.0,14.0,0.0,196.0,214.0,25.0,308.0
-327.0,33.0,20.0,10.0,108.0,177.0,10.0,304.0
-188.0,20.0,-6.0,-14.0,7.0,172.0,6.0,304.0
-104.0,110.0,10.0,-14.0,-86.0,185.0,-2.0,320.0
-38.0,126.0,-4.0,-17.0,-168.0,160.0,0.0,341.0
-138.0,46.0,13.0,-3.0,-205.0,197.0,16.0,355.0
-158.0,-80.0,-2.0,-11.0,-284.0,188.0,15.0,341.0
-10.0,-84.0,0.0,-3.0,-360.0,214.0,25.0,322.0
-6.0,-44.0,0.0,10.0,-469.0,140.0,24.0,276.0
61.0,-76.0,-13.0,-36.0,-502.0,66.0,-6.0,249.0
107.0,-117.0,-17.0,-69.0,-511.0,-3.0,-6.0,266.0
430.0,-64.0,-26.0,-68.0,-584.0,12.0,7.0,271.0
576.0,65.0,-28.0,-65.0,-653.0,168.0,1.0,271.0
382.0,197.0,-11.0,-44.0,-717.0,216.0,-18.0,339.0
277.0,96.0,-9.0,-27.0,-742.0,203.0,-28.0,401.0
55.0,-128.0,-13.0,-44.0,-746.0,221.0,-18.0,401.0
-156.0,-155.0,3.0,-39.0,-730.0,203.0,-3.0,426.0
-254.0,-118.0,-6.0,-13.0,-746.0,176.0,-20.0,434.0
-266.0,-122.0,-4.0,-12.0,-812.0,154.0,-15.0,438.0
-245.0,-106.0,-10.0,4.0,-908.0,113.0,5.0,434.0
-206.0,-94.0,-21.0,6.0,-1028.0,138.0,9.0,454.0
-88.0,-59.0,-21.0,-4.0,-1072.0,96.0,17.0,416.0
32.0,15.0,-46.0,-21.0,-1077.0,81.0,23.0,383.0
160.0,124.0,-40.0,-6.0,-1055.0,112.0,22.0,369.0
243.0,170.0,-3.0,-1.0,-1006.0,132.0,61.0,326.0
194.0,152.0,-28.0,0.0,-1006.0,170.0,54.0,348.0
121.0,147.0,-26.0,7.0,-1012.0,151.0,64.0,356.0
-34.0,5.0,5.0,18.0,-986.0,214.0,66.0,339.0
-114.0,-80.0,-25.0,6.0,-921.0,243.0,27.0,332.0
-97.0,-112.0,-18.0,-13.0,-798.0,243.0,40.0,340.0
-76.0,-193.0,-30.0,-3.0,-653.0,268.0,47.0,352.0
-25.0,-219.0,-36.0,-21.0,-583.0,237.0,75.0,361.0
-14.0,-292.0,-5.0,-22.0,-580.0,232.0,92.0,369.0
-12.0,-318.0,-13.0,-33.0,-549.0,191.0,97.0,385.0
-33.0,-281.0,-15.0,-28.0,-506.0,170.0,90.0,406.0
-61.0,-92.0,-7.0,-25.0,-425.0,143.0,98.0,456.0
-40.0,-26.0,-17.0,-20.0,-307.0,131.0,109.0,522.0
-4.0,-44.0,10.0,-3.0,-225.0,94.0,105.0,547.0
2.0,63.0,12.0,-5.0,-150.0,71.0,99.0,543.0
-34.0,92.0,4.0,-15.0,-126.0,45.0,69.0,536.0
-52.0,73.0,6.0,-49.0,-160.0,-11.0,74.0,589.0
7.0,-13.0,-11.0,-38.0,-190.0,-52.0,65.0,609.0
25.0,10.0,18.0,-28.0,-227.0,-78.0,34.0,564.0
48.0,68.0,12.0,-27.0,-217.0,-130.0,71.0,564.0
73.0,87.0,24.0,-23.0,-221.0,-182.0,69.0,556.0
-14.0,69.0,46.0,-9.0,-229.0,-169.0,65.0,522.0
-155.0,35.0,55.0,13.0,-252.0,-214.0,81.0,541.0
-339.0,45.0,60.0,-4.0,-264.0,-253.0,81.0,564.0
-158.0,40.0,36.0,-45.0,-250.0,-260.0,66.0,590.0
133.0,93.0,71.0,-56.0,-190.0,-232.0,75.0,556.0
196.0,99.0,76.0,-69.0,-147.0,-173.0,80.0,544.0
334.0,114.0,89.0,-90.0,-160.0,-185.0,54.0,547.0
281.0,111.0,81.0,-123.0,-196.0,-149.0,47.0,491.0
181.0,103.0,77.0,-160.0,-245.0,-180.0,65.0,459.0
109.0,138.0,98.0,-125.0,-227.0,-193.0,49.0,408.0
10.0,144.0,88.0,-125.0,-221.0,-158.0,33.0,369.0
-17.0,105.0,106.0,-139.0,-213.0,-184.0,30.0,367.0
4.0,20.0,92.0,-104.0,-183.0,-140.0,39.0,342.0
-5.0,5.0,64.0,-83.0,-196.0,-58.0,42.0,312.0
-32.0,16.0,69.0,-83.0,-205.0,37.0,29.0,228.0
-77.0,-26.0,51.0,-56.0,-203.0,10.0,62.0,174.0
-150.0,-42.0,23.0,-26.0,-209.0,-50.0,46.0,123.0
-146.0,-14.0,9.0,-32.0,-225.0,-90.0,58.0,91.0
-177.0,-28.0,-23.0,-32.0,-225.0,-85.0,76.0,68.0
-193.0,7.0,-32.0,-28.0,-254.0,-123.0,37.0,27.0
-156.0,67.0,-43.0,-4.0,-276.0,-186.0,48.0,19.0
-140.0,55.0,-56.0,36.0,-258.0,-200.0,47.0,-69.0
-131.0,65.0,-70.0,50.0,-288.0,-157.0,53.0,-93.0
-111.0,76.0,-104.0,45.0,-295.0,-102.0,42.0,-87.0
-98.0,70.0,-118.0,59.0,-272.0,-167.0,47.0,-164.0
-96.0,30.0,-129.0,62.0,-272.0,-194.0,30.0,-223.0
-88.0,16.0,-121.0,34.0,-254.0,-213.0,17.0,-232.0
-70.0,38.0,-146.0,72.0,-225.0,-275.0,12.0,-223.0
-44.0,43.0,-143.0,66.0,-227.0,-284.0,-32.0,-290.0
-43.0,44.0,-152.0,37.0,-254.0,-297.0,-37.0,-295.0
-36.0,10.0,-128.0,37.0,-217.0,-262.0,-41.0,-279.0
-10.0,-33.0,-86.0,39.0,-185.0,-167.0,-28.0,-324.0
-7.0,-29.0,-116.0,56.0,-132.0,-156.0,-23.0,-334.0
-48.0,13.0,-90.0,46.0,-101.0,-143.0,-1.0,-340.0
-15.0,-8.0,-70.0,48.0,-94.0,-116.0,-3.0,-340.0
17.0,-72.0,-55.0,43.0,-73.0,-113.0,-18.0,-409.0
0.0,-23.0,-42.0,49.0,-66.0,-66.0,10.0,-419.0
12.0,-5.0,-72.0,60.0,-47.0,-19.0,6.0,-415.0
27.0,52.0,-35.0,46.0,-38.0,-31.0,-16.0,-492.0
25.0,93.0,-22.0,19.0,5.0,-23.0,-20.0,-543.0
18.0,40.0,-40.0,-2.0,55.0,-3.0,-49.0,-644.0
56.0,170.0,-39.0,30.0,72.0,-43.0,-36.0,-628.0
48.0,174.0,1.0,30.0,56.0,-98.0,-9.0,-583.0
47.0,31.0,5.0,7.0,30.0,-57.0,-32.0,-605.0
64.0,-85.0,-9.0,11.0,44.0,-15.0,-22.0,-562.0
27.0,-8.0,17.0,-12.0,50.0,-2.0,1.0,-562.0
44.0,256.0,-5.0,-48.0,26.0,93.0,-30.0,-588.0
27.0,269.0,-16.0,-44.0,53.0,199.0,-41.0,-592.0
17.0,30.0,-17.0,-17.0,90.0,311.0,-33.0,-627.0
15.0,-99.0,7.0,-9.0,123.0,345.0,-29.0,-610.0
16.0,-131.0,19.0,-15.0,196.0,326.0,-7.0,-572.0
43.0,-79.0,13.0,-10.0,230.0,321.0,-28.0,-592.0
-24.0,-96.0,42.0,-19.0,280.0,241.0,2.0,-553.0
-74.0,-155.0,44.0,-19.0,342.0,217.0,26.0,-492.0
-46.0,-131.0,73.0,-7.0,383.0,259.0,37.0,-472.0
-24.0,-176.0,63.0,-25.0,400.0,172.0,30.0,-431.0
7.0,-104.0,47.0,-9.0,349.0,53.0,8.0,-424.0
3.0,-19.0,47.0,0.0,314.0,103.0,23.0,-379.0
-46.0,-79.0,36.0,-44.0,334.0,126.0,15.0,-327.0
-26.0,-118.0,13.0,-36.0,363.0,138.0,22.0,-334.0
-11.0,-107.0,28.0,-28.0,412.0,268.0,20.0,-314.0
25.0,-47.0,39.0,-13.0,444.0,419.0,-5.0,-257.0
67.0,9.0,15.0,2.0,440.0,494.0,-12.0,-246.0
29.0,77.0,40.0,-34.0,414.0,384.0,-40.0,-246.0
25.0,95.0,30.0,-29.0,348.0,345.0,-46.0,-232.0
35.0,66.0,27.0,-39.0,367.0,368.0,-39.0,-274.0
17.0,65.0,30.0,-37.0,400.0,376.0,-24.0,-320.0
-15.0,-8.0,18.0,-24.0,414.0,406.0,-6.0,-312.0
7.0,-88.0,24.0,-48.0,469.0,319.0,-13.0,-305.0
0.0,-105.0,34.0,-41.0,430.0,248.0,-14.0,-282.0
-17.0,-71.0,-1.0,-25.0,288.0,210.0,-52.0,-297.0
7.0,-63.0,-6.0,-37.0,154.0,197.0,-56.0,-343.0
33.0,-43.0,-15.0,-25.0,50.0,177.0,-88.0,-295.0
25.0,-10.0,-5.0,-19.0,-29.0,197.0,-85.0,-297.0
-30.0,-35.0,3.0,-54.0,-53.0,246.0,-86.0,-327.0
-41.0,-21.0,-38.0,-36.0,-27.0,260.0,-92.0,-305.0
-88.0,-29.0,-6.0,-41.0,-11.0,343.0,-83.0,-327.0
-112.0,-53.0,-1.0,-32.0,40.0,368.0,-89.0,-330.0
-94.0,-59.0,5.0,-28.0,104.0,355.0,-43.0,-360.0
-106.0,-41.0,-20.0,-29.0,154.0,412.0,-16.0,-339.0
-79.0,10.0,-25.0,-10.0,205.0,403.0,-8.0,-305.0
-40.0,-12.0,-16.0,-20.0,213.0,415.0,-16.0,-324.0
-25.0,-13.0,-20.0,-28.0,230.0,433.0,15.0,-295.0
-16.0,6.0,-7.0,-14.0,212.0,415.0,43.0,-317.0
-29.0,-3.0,10.0,-7.0,169.0,427.0,67.0,-340.0
-20.0,19.0,-5.0,-11.0,148.0,386.0,93.0,-348.0
-10.0,28.0,-13.0,-2.0,110.0,367.0,78.0,-305.0
-8.0,63.0,-6.0,1.0,71.0,325.0,88.0,-297.0
17.0,70.0,-7.0,-18.0,47.0,326.0,110.0,-286.0
25.0,99.0,12.0,-26.0,29.0,339.0,85.0,-269.0
54.0,99.0,-26.0,-10.0,34.0,319.0,72.0,-268.0
80.0,30.0,-16.0,-17.0,80.0,296.0,120.0,-269.0
131.0,-21.0,-17.0,-34.0,126.0,283.0,131.0,-281.0
163.0,12.0,-29.0,-18.0,154.0,276.0,116.0,-282.0
128.0,269.0,-9.0,-28.0,183.0,237.0,142.0,-280.0
101.0,199.0,-13.0,-31.0,242.0,237.0,167.0,-203.0
70.0,-129.0,4.0,-17.0,285.0,221.0,165.0,-219.0
39.0,-188.0,-9.0,3.0,247.0,230.0,151.0,-170.0
-28.0,-214.0,17.0,12.0,228.0,221.0,149.0,-101.0
-44.0,113.0,-5.0,-36.0,212.0,183.0,160.0,-96.0
-10.0,225.0,-17.0,-25.0,134.0,158.0,129.0,-44.0
5.0,99.0,15.0,6.0,92.0,151.0,138.0,-16.0
-31.0,286.0,15.0,15.0,34.0,167.0,156.0,103.0
-62.0,363.0,30.0,0.0,-5.0,102.0,122.0,249.0
-67.0,542.0,16.0,-8.0,0.0,4.0,126.0,302.0
