908.0,-166.0,-424.0,-121.0,-446.0,-211.0,-118.0,-121.0
1476.0,-145.0,-324.0,-165.0,-413.0,-308.0,-189.0,-158.0
1873.0,-152.0,-238.0,-184.0,-421.0,-352.0,-208.0,-180.0
1737.0,-140.0,-79.0,-202.0,-478.0,-293.0,-194.0,-177.0
1411.0,-155.0,-23.0,-266.0,-443.0,-161.0,-220.0,-137.0
798.0,-192.0,-209.0,-279.0,-391.0,-2.0,-221.0,-175.0
98.0,-215.0,-381.0,-293.0,-399.0,67.0,-184.0,-153.0
-296.0,-240.0,-146.0,-216.0,-356.0,46.0,-192.0,-116.0
-534.0,-208.0,-1.0,-152.0,-321.0,-10.0,-176.0,-136.0
-549.0,-137.0,-87.0,-158.0,-307.0,-7.0,-128.0,-116.0
-669.0,-111.0,1.0,-165.0,-234.0,-33.0,-112.0,-113.0
-1010.0,-96.0,71.0,-173.0,-223.0,-54.0,-81.0,-75.0
-1131.0,-83.0,-23.0,-171.0,-215.0,-105.0,-71.0,-43.0
-698.0,-73.0,-116.0,-168.0,-164.0,-159.0,-48.0,-21.0
-457.0,-50.0,-129.0,-180.0,-130.0,-32.0,-25.0,17.0
-203.0,-31.0,-120.0,-113.0,-84.0,36.0,-6.0,39.0
52.0,-16.0,-41.0,-49.0,-80.0,40.0,25.0,39.0
92.0,-1.0,14.0,-30.0,-41.0,58.0,25.0,61.0
95.0,-8.0,-297.0,-37.0,-36.0,49.0,49.0,91.0
22.0,2.0,-502.0,-53.0,-34.0,61.0,100.0,90.0
1.0,2.0,-282.0,-4.0,-42.0,119.0,104.0,97.0
-36.0,16.0,-214.0,23.0,-46.0,177.0,87.0,112.0
-12.0,55.0,-152.0,52.0,-9.0,89.0,129.0,131.0
-96.0,55.0,-95.0,66.0,-21.0,-10.0,138.0,137.0
-136.0,55.0,85.0,67.0,23.0,75.0,123.0,154.0
-236.0,23.0,280.0,115.0,39.0,129.0,166.0,155.0
-196.0,38.0,202.0,73.0,-15.0,149.0,160.0,144.0
-126.0,111.0,207.0,66.0,-107.0,169.0,155.0,136.0
-77.0,117.0,136.0,75.0,-209.0,10.0,155.0,117.0
39.0,107.0,-24.0,67.0,-132.0,-37.0,138.0,117.0
20.0,114.0,-102.0,77.0,-65.0,82.0,113.0,100.0
85.0,128.0,85.0,122.0,-63.0,145.0,77.0,107.0
109.0,108.0,263.0,128.0,43.0,101.0,86.0,116.0
86.0,103.0,253.0,120.0,125.0,104.0,112.0,108.0
-88.0,96.0,385.0,128.0,96.0,130.0,117.0,132.0
-29.0,81.0,376.0,122.0,77.0,124.0,120.0,192.0
60.0,93.0,432.0,140.0,125.0,177.0,111.0,143.0
105.0,93.0,325.0,44.0,122.0,136.0,81.0,95.0
259.0,121.0,60.0,48.0,170.0,37.0,76.0,145.0
277.0,126.0,-69.0,128.0,275.0,-54.0,46.0,133.0
399.0,139.0,-187.0,138.0,290.0,-30.0,56.0,148.0
334.0,140.0,89.0,140.0,245.0,-108.0,51.0,138.0
275.0,117.0,337.0,162.0,253.0,-221.0,32.0,135.0
184.0,81.0,396.0,162.0,340.0,-116.0,59.0,136.0
33.0,79.0,379.0,128.0,399.0,7.0,59.0,120.0
-33.0,114.0,-66.0,104.0,415.0,160.0,40.0,139.0
-79.0,87.0,-473.0,34.0,383.0,292.0,49.0,146.0
-100.0,58.0,-446.0,-28.0,367.0,326.0,71.0,108.0
-87.0,95.0,-239.0,-78.0,385.0,220.0,48.0,6.0
-16.0,105.0,-132.0,-191.0,379.0,124.0,50.0,-48.0
-49.0,73.0,-200.0,-255.0,379.0,51.0,76.0,-192.0
-53.0,101.0,-139.0,-198.0,323.0,7.0,78.0,-385.0
-256.0,121.0,-56.0,-141.0,277.0,4.0,65.0,-149.0
-886.0,82.0,-65.0,-76.0,275.0,-88.0,76.0,20.0
-1418.0,38.0,1.0,-23.0,296.0,-55.0,84.0,-66.0
-957.0,33.0,30.0,7.0,310.0,22.0,70.0,11.0
71.0,-11.0,72.0,42.0,302.0,63.0,65.0,-17.0
798.0,-84.0,77.0,36.0,340.0,147.0,80.0,2.0
1372.0,-92.0,77.0,47.0,336.0,166.0,89.0,3.0
1515.0,-81.0,99.0,45.0,293.0,142.0,59.0,-33.0
1376.0,-48.0,63.0,20.0,325.0,248.0,73.0,-38.0
705.0,-7.0,32.0,51.0,363.0,276.0,79.0,-68.0
-343.0,-15.0,-26.0,72.0,281.0,177.0,69.0,-39.0
-889.0,28.0,39.0,105.0,232.0,148.0,106.0,-35.0
-1019.0,24.0,67.0,115.0,235.0,36.0,105.0,-18.0
-1271.0,-7.0,7.0,92.0,196.0,-139.0,83.0,-37.0
-1084.0,25.0,74.0,73.0,188.0,-349.0,93.0,-36.0
-20.0,29.0,95.0,39.0,177.0,-423.0,87.0,-58.0
961.0,83.0,150.0,20.0,184.0,-381.0,76.0,-48.0
1594.0,76.0,187.0,13.0,150.0,-362.0,62.0,-46.0
1872.0,48.0,172.0,12.0,179.0,-244.0,39.0,-47.0
1671.0,34.0,150.0,-19.0,220.0,-24.0,43.0,-34.0
1065.0,1.0,113.0,-60.0,180.0,-104.0,29.0,-58.0
149.0,-20.0,133.0,-49.0,201.0,-232.0,29.0,-30.0
-367.0,-20.0,59.0,-128.0,260.0,-88.0,9.0,-31.0
-645.0,9.0,-115.0,-256.0,267.0,59.0,6.0,-13.0
-784.0,59.0,-182.0,-366.0,230.0,248.0,32.0,-1.0
-807.0,105.0,-64.0,-343.0,163.0,283.0,8.0,-26.0
-1011.0,58.0,-62.0,-183.0,131.0,219.0,-10.0,-20.0
-974.0,55.0,-245.0,-134.0,163.0,196.0,-16.0,-6.0
-784.0,-8.0,-430.0,-120.0,108.0,58.0,4.0,-46.0
-610.0,-128.0,-557.0,-22.0,50.0,-55.0,-4.0,-38.0
-179.0,-115.0,-405.0,37.0,60.0,6.0,1.0,-19.0
177.0,-121.0,-180.0,45.0,81.0,83.0,-9.0,-37.0
275.0,-215.0,-67.0,52.0,43.0,105.0,4.0,-18.0
262.0,-232.0,-56.0,1.0,-105.0,148.0,5.0,-13.0
149.0,-142.0,-123.0,-66.0,-229.0,124.0,-30.0,-15.0
-80.0,-59.0,-158.0,-52.0,-291.0,40.0,5.0,-13.0
-280.0,-30.0,-223.0,-12.0,-267.0,42.0,-4.0,-23.0
-146.0,-35.0,-298.0,31.0,-183.0,38.0,-17.0,-13.0
-119.0,-50.0,-373.0,87.0,-155.0,-16.0,-25.0,-14.0
-136.0,-97.0,-219.0,158.0,-140.0,43.0,-51.0,-18.0
49.0,-101.0,-1.0,210.0,-107.0,34.0,-41.0,-6.0
107.0,-62.0,111.0,229.0,-114.0,6.0,-51.0,5.0
-55.0,-56.0,276.0,174.0,-130.0,-71.0,-27.0,5.0
-306.0,-1.0,234.0,77.0,-75.0,-131.0,-17.0,5.0
-190.0,62.0,256.0,26.0,5.0,-91.0,-20.0,18.0
-61.0,36.0,251.0,-59.0,27.0,-27.0,8.0,37.0
-150.0,13.0,110.0,-173.0,4.0,175.0,-3.0,55.0
-354.0,43.0,-83.0,-211.0,20.0,184.0,2.0,98.0
-255.0,63.0,-129.0,-188.0,56.0,127.0,15.0,87.0
134.0,56.0,80.0,-52.0,142.0,217.0,20.0,44.0
47.0,46.0,105.0,-6.0,171.0,158.0,19.0,42.0
-18.0,46.0,107.0,71.0,142.0,-3.0,9.0,75.0
250.0,49.0,85.0,99.0,94.0,-48.0,18.0,77.0
447.0,57.0,-107.0,3.0,42.0,27.0,17.0,79.0
465.0,31.0,-113.0,127.0,13.0,146.0,21.0,86.0
576.0,-24.0,38.0,87.0,-21.0,231.0,41.0,96.0
668.0,-14.0,107.0,-1.0,-103.0,191.0,31.0,100.0
660.0,45.0,136.0,-85.0,-132.0,136.0,24.0,88.0
436.0,17.0,-265.0,-279.0,-48.0,67.0,38.0,116.0
125.0,49.0,-450.0,-285.0,-37.0,-43.0,76.0,90.0
-31.0,67.0,-152.0,-287.0,-11.0,-6.0,64.0,50.0
-104.0,-3.0,-30.0,-293.0,51.0,17.0,36.0,27.0
-99.0,4.0,21.0,-93.0,81.0,-65.0,66.0,27.0
-236.0,10.0,74.0,65.0,119.0,-64.0,47.0,24.0
-305.0,-27.0,137.0,152.0,113.0,-31.0,48.0,14.0
-318.0,-80.0,142.0,181.0,60.0,18.0,48.0,44.0
-331.0,-44.0,121.0,88.0,20.0,-41.0,48.0,17.0
-190.0,-7.0,152.0,64.0,37.0,-36.0,73.0,16.0
-140.0,55.0,244.0,-11.0,160.0,5.0,42.0,41.0
-152.0,118.0,241.0,-41.0,180.0,30.0,52.0,36.0
-114.0,87.0,217.0,-32.0,166.0,101.0,64.0,17.0
-96.0,87.0,217.0,35.0,224.0,84.0,39.0,5.0
-62.0,95.0,140.0,81.0,232.0,70.0,54.0,2.0
-32.0,54.0,217.0,59.0,196.0,74.0,44.0,5.0
6.0,-35.0,246.0,59.0,132.0,67.0,8.0,27.0
-24.0,-14.0,135.0,77.0,104.0,24.0,16.0,55.0
-67.0,60.0,102.0,72.0,93.0,-3.0,8.0,79.0
-43.0,33.0,137.0,63.0,74.0,-82.0,-8.0,82.0
-15.0,70.0,146.0,77.0,72.0,-129.0,-30.0,74.0
27.0,48.0,137.0,87.0,64.0,-129.0,-56.0,43.0
3.0,-45.0,-12.0,69.0,20.0,-113.0,-76.0,-9.0
7.0,-89.0,-314.0,-2.0,-24.0,-51.0,-127.0,5.0
-1.0,-15.0,-389.0,-37.0,-12.0,-26.0,-123.0,6.0
-26.0,50.0,-405.0,-61.0,-24.0,-9.0,-112.0,-30.0
-49.0,-40.0,-291.0,-64.0,-25.0,21.0,-106.0,-38.0
-85.0,-39.0,206.0,-99.0,-14.0,52.0,-92.0,-56.0
-58.0,-26.0,671.0,-95.0,24.0,38.0,-69.0,-94.0
-44.0,-11.0,891.0,-108.0,35.0,104.0,-12.0,-89.0
-36.0,41.0,801.0,-127.0,34.0,123.0,7.0,-83.0
-38.0,68.0,540.0,-105.0,92.0,146.0,21.0,-87.0
-49.0,40.0,297.0,-57.0,119.0,188.0,70.0,-37.0
2.0,7.0,241.0,8.0,148.0,155.0,50.0,-40.0
28.0,73.0,260.0,27.0,168.0,174.0,45.0,-32.0
32.0,49.0,256.0,55.0,184.0,160.0,21.0,-24.0
36.0,-20.0,356.0,20.0,138.0,146.0,5.0,-66.0
4.0,-101.0,323.0,-21.0,105.0,176.0,35.0,-52.0
-17.0,-136.0,237.0,-53.0,122.0,138.0,-42.0,-40.0
3.0,-141.0,152.0,-6.0,80.0,127.0,-106.0,-32.0
65.0,-281.0,65.0,23.0,90.0,197.0,-63.0,-39.0
86.0,-162.0,-16.0,-24.0,140.0,213.0,-51.0,-23.0
108.0,26.0,-318.0,-87.0,153.0,254.0,-51.0,15.0
135.0,-46.0,-932.0,-88.0,105.0,211.0,10.0,29.0
69.0,-14.0,-1106.0,-91.0,19.0,96.0,15.0,46.0
27.0,-52.0,-666.0,-137.0,16.0,-1.0,6.0,76.0
-51.0,-42.0,-393.0,-152.0,50.0,-208.0,9.0,107.0
-286.0,-15.0,-133.0,-141.0,128.0,-411.0,-6.0,120.0
-433.0,-66.0,-33.0,-75.0,190.0,-399.0,9.0,149.0
-614.0,-43.0,-106.0,-93.0,180.0,-269.0,13.0,170.0
-1006.0,-52.0,-135.0,-122.0,139.0,-179.0,13.0,168.0
-647.0,4.0,-48.0,-64.0,111.0,-104.0,15.0,174.0
125.0,45.0,223.0,1.0,129.0,-86.0,45.0,170.0
586.0,41.0,606.0,116.0,145.0,47.0,73.0,206.0
1130.0,75.0,433.0,138.0,169.0,123.0,60.0,224.0
1181.0,112.0,-470.0,158.0,219.0,115.0,54.0,218.0
778.0,87.0,-1016.0,182.0,219.0,172.0,124.0,213.0
304.0,99.0,-943.0,120.0,151.0,199.0,146.0,190.0
-453.0,113.0,-739.0,54.0,63.0,206.0,144.0,176.0
-871.0,110.0,-490.0,-40.0,-20.0,167.0,120.0,147.0
-744.0,66.0,259.0,-50.0,-35.0,130.0,59.0,155.0
-714.0,1.0,858.0,35.0,-65.0,88.0,64.0,165.0
-314.0,1.0,1249.0,87.0,-137.0,100.0,63.0,129.0
150.0,8.0,1184.0,65.0,-180.0,46.0,33.0,95.0
97.0,33.0,775.0,28.0,-176.0,86.0,66.0,106.0
-146.0,2.0,401.0,18.0,-201.0,164.0,146.0,103.0
23.0,-15.0,-83.0,-73.0,-244.0,126.0,89.0,56.0
517.0,8.0,-255.0,-143.0,-202.0,149.0,126.0,43.0
855.0,38.0,-483.0,-90.0,-163.0,-11.0,151.0,32.0
1116.0,48.0,-510.0,-83.0,-155.0,-148.0,15.0,18.0
929.0,42.0,-694.0,-133.0,-256.0,-27.0,-22.0,14.0
745.0,-3.0,-645.0,-55.0,-341.0,84.0,19.0,2.0
473.0,-47.0,-336.0,3.0,-385.0,75.0,72.0,17.0
177.0,-44.0,-376.0,-17.0,-356.0,89.0,89.0,5.0
-168.0,-86.0,-231.0,-26.0,-295.0,21.0,97.0,5.0
-451.0,-52.0,-253.0,-48.0,-299.0,-15.0,142.0,-15.0
-409.0,-5.0,-232.0,-56.0,-311.0,54.0,225.0,-49.0
-535.0,18.0,-247.0,-26.0,-340.0,-8.0,163.0,-53.0
-476.0,46.0,-403.0,-19.0,-364.0,-44.0,77.0,-101.0
-388.0,17.0,-369.0,-9.0,-389.0,-52.0,68.0,-105.0
-404.0,13.0,-319.0,25.0,-272.0,-111.0,8.0,-87.0
-415.0,50.0,-220.0,32.0,-78.0,-226.0,34.0,-105.0
-346.0,75.0,-135.0,33.0,140.0,-268.0,45.0,-82.0
-323.0,56.0,-154.0,18.0,230.0,-116.0,8.0,-111.0
-889.0,60.0,-74.0,6.0,101.0,-54.0,44.0,-96.0
-1305.0,87.0,4.0,41.0,-52.0,-38.0,45.0,-52.0
-736.0,117.0,-101.0,25.0,-136.0,-49.0,70.0,-92.0
-21.0,115.0,-190.0,-40.0,-205.0,-67.0,28.0,-91.0
408.0,44.0,-194.0,-68.0,-201.0,-57.0,-81.0,-105.0
733.0,64.0,-393.0,-116.0,-66.0,-93.0,-69.0,-113.0
1059.0,73.0,-645.0,-151.0,-29.0,-98.0,-98.0,-99.0
1108.0,-30.0,-601.0,-84.0,-83.0,-116.0,-89.0,-82.0
530.0,-202.0,-507.0,-45.0,-195.0,-90.0,-63.0,-82.0
92.0,-326.0,-263.0,13.0,-236.0,-78.0,-84.0,-80.0
-280.0,-230.0,-147.0,65.0,-218.0,-53.0,-44.0,-50.0
-487.0,-79.0,-283.0,2.0,-225.0,-59.0,-77.0,-69.0
-569.0,-47.0,-269.0,-25.0,-259.0,-71.0,-128.0,-75.0
-331.0,2.0,-393.0,3.0,-383.0,-45.0,-97.0,-62.0
215.0,41.0,-365.0,49.0,-379.0,-86.0,-60.0,-46.0
386.0,55.0,-297.0,91.0,-254.0,-146.0,-36.0,-23.0
464.0,73.0,-271.0,92.0,-272.0,-161.0,-21.0,-13.0
393.0,66.0,-129.0,77.0,-394.0,-82.0,-72.0,-8.0
305.0,77.0,-114.0,27.0,-295.0,-30.0,-81.0,15.0
342.0,68.0,-211.0,-55.0,-107.0,2.0,-32.0,13.0
408.0,54.0,-356.0,-120.0,20.0,4.0,-91.0,-5.0
322.0,19.0,-628.0,-214.0,72.0,-91.0,-140.0,2.0
101.0,-42.0,-841.0,-225.0,114.0,-120.0,-83.0,35.0
-87.0,-41.0,-578.0,-87.0,99.0,-49.0,-137.0,-1.0
-230.0,-2.0,-258.0,-17.0,-78.0,12.0,-174.0,-34.0
-261.0,48.0,-228.0,-52.0,-187.0,67.0,-174.0,-31.0
-201.0,124.0,-115.0,-36.0,-180.0,139.0,-188.0,-39.0
-238.0,124.0,-132.0,-16.0,-50.0,93.0,-124.0,-22.0
-258.0,83.0,-141.0,-4.0,74.0,72.0,-130.0,-19.0
-201.0,29.0,36.0,35.0,72.0,104.0,-82.0,10.0
-234.0,17.0,36.0,19.0,114.0,107.0,-47.0,-2.0
-228.0,10.0,83.0,19.0,114.0,87.0,-69.0,-21.0
-245.0,-139.0,199.0,15.0,196.0,62.0,-42.0,-14.0
-238.0,-183.0,218.0,16.0,277.0,87.0,-74.0,-15.0
-128.0,-111.0,288.0,36.0,245.0,68.0,-46.0,1.0
-71.0,-74.0,321.0,19.0,245.0,26.0,-2.0,-17.0
-47.0,-31.0,364.0,9.0,302.0,16.0,-11.0,-2.0
0.0,37.0,443.0,9.0,253.0,34.0,0.0,16.0
-101.0,25.0,502.0,59.0,85.0,44.0,19.0,22.0
-589.0,40.0,564.0,42.0,11.0,67.0,29.0,38.0
-1260.0,56.0,598.0,-3.0,3.0,66.0,17.0,38.0
-1305.0,37.0,606.0,26.0,110.0,48.0,54.0,50.0
-674.0,22.0,699.0,43.0,227.0,30.0,48.0,50.0
-209.0,-8.0,792.0,39.0,302.0,41.0,51.0,28.0
434.0,-17.0,728.0,23.0,348.0,58.0,89.0,47.0
1307.0,-42.0,683.0,8.0,363.0,17.0,56.0,32.0
1500.0,-68.0,541.0,-46.0,428.0,56.0,68.0,40.0
1124.0,-75.0,441.0,-62.0,430.0,73.0,117.0,76.0
841.0,4.0,466.0,-8.0,403.0,14.0,133.0,98.0
1085.0,114.0,520.0,-33.0,408.0,27.0,79.0,112.0
954.0,149.0,410.0,-64.0,389.0,37.0,82.0,98.0
505.0,122.0,-324.0,-52.0,355.0,20.0,67.0,84.0
139.0,93.0,-963.0,-15.0,340.0,31.0,37.0,92.0
-52.0,29.0,-454.0,-14.0,301.0,8.0,31.0,63.0
-34.0,-26.0,760.0,-37.0,298.0,-38.0,-6.0,55.0
-442.0,-18.0,1770.0,-46.0,318.0,-39.0,19.0,98.0
-580.0,-30.0,2330.0,-79.0,302.0,-29.0,13.0,133.0
-404.0,-41.0,2194.0,-115.0,253.0,-56.0,41.0,137.0
-203.0,-5.0,1562.0,-92.0,190.0,-7.0,101.0,147.0
-318.0,-11.0,1088.0,-33.0,176.0,39.0,51.0,156.0
-807.0,-118.0,692.0,-17.0,155.0,-3.0,45.0,133.0
-1156.0,-168.0,572.0,9.0,98.0,25.0,32.0,108.0
-966.0,-142.0,582.0,-1.0,60.0,26.0,43.0,103.0
-490.0,-81.0,345.0,12.0,22.0,20.0,66.0,141.0
-34.0,-28.0,244.0,46.0,-21.0,35.0,58.0,190.0
436.0,12.0,272.0,45.0,-46.0,75.0,107.0,213.0
562.0,80.0,311.0,57.0,-123.0,102.0,92.0,187.0
586.0,45.0,309.0,40.0,-164.0,61.0,98.0,228.0
363.0,-14.0,234.0,33.0,-199.0,66.0,95.0,301.0
151.0,-44.0,203.0,44.0,-213.0,61.0,58.0,292.0
47.0,-15.0,184.0,69.0,-201.0,83.0,123.0,282.0
-21.0,58.0,130.0,93.0,-211.0,45.0,130.0,296.0
-59.0,66.0,187.0,72.0,-225.0,-8.0,68.0,254.0
-85.0,73.0,234.0,47.0,-295.0,8.0,65.0,182.0
4.0,108.0,150.0,-14.0,-319.0,1.0,83.0,112.0
-41.0,85.0,43.0,-90.0,-321.0,7.0,64.0,-44.0
-84.0,41.0,-190.0,-110.0,-354.0,64.0,39.0,-260.0
-225.0,30.0,-350.0,-114.0,-350.0,58.0,29.0,-158.0
-176.0,13.0,-214.0,-63.0,-339.0,48.0,64.0,134.0
-140.0,-8.0,-121.0,7.0,-327.0,102.0,93.0,75.0
-518.0,-59.0,-442.0,-47.0,-315.0,137.0,-1.0,117.0
-627.0,-68.0,-876.0,-115.0,-314.0,123.0,-63.0,141.0
-392.0,-34.0,-827.0,-136.0,-252.0,-7.0,-51.0,100.0
-64.0,-14.0,-519.0,-53.0,-261.0,-134.0,4.0,148.0
318.0,16.0,-222.0,-2.0,-274.0,-146.0,50.0,83.0
487.0,20.0,60.0,-13.0,-273.0,-29.0,73.0,91.0
569.0,12.0,-190.0,-2.0,-269.0,23.0,90.0,49.0
564.0,4.0,-776.0,-39.0,-225.0,-4.0,107.0,51.0
380.0,-49.0,-753.0,-46.0,-211.0,-32.0,111.0,58.0
162.0,-71.0,-91.0,-24.0,-149.0,22.0,106.0,46.0
183.0,-34.0,259.0,-29.0,-141.0,34.0,111.0,38.0
130.0,-11.0,546.0,-10.0,-190.0,71.0,73.0,6.0
-93.0,0.0,501.0,-5.0,-205.0,158.0,20.0,-6.0
-71.0,-8.0,162.0,-37.0,-183.0,99.0,29.0,-25.0
-18.0,-6.0,-36.0,-15.0,-117.0,90.0,41.0,-26.0
-23.0,-25.0,-334.0,-6.0,-47.0,72.0,23.0,-72.0
-105.0,-13.0,-365.0,-9.0,-23.0,80.0,41.0,-51.0
-150.0,23.0,-415.0,31.0,-25.0,131.0,41.0,-52.0
-177.0,27.0,-578.0,30.0,-34.0,119.0,22.0,-74.0
-250.0,28.0,-641.0,10.0,-1.0,107.0,12.0,-63.0
-180.0,17.0,-572.0,7.0,125.0,148.0,-3.0,-79.0
-41.0,43.0,-507.0,30.0,235.0,166.0,-15.0,-101.0
55.0,52.0,-454.0,15.0,296.0,155.0,-10.0,-105.0
100.0,79.0,-458.0,4.0,333.0,143.0,12.0,-99.0
181.0,81.0,-550.0,-24.0,337.0,150.0,-5.0,-86.0
176.0,86.0,-578.0,-57.0,324.0,170.0,-12.0,-91.0
86.0,76.0,-507.0,-35.0,308.0,162.0,15.0,-101.0
30.0,38.0,-285.0,2.0,328.0,109.0,18.0,-97.0
-28.0,22.0,-281.0,-54.0,320.0,22.0,24.0,-132.0
-84.0,-12.0,-507.0,-80.0,296.0,47.0,43.0,-113.0
-164.0,27.0,-552.0,-6.0,267.0,130.0,93.0,-81.0
-93.0,18.0,-255.0,-2.0,259.0,77.0,102.0,-90.0
66.0,30.0,-36.0,-3.0,241.0,-20.0,93.0,-95.0
68.0,7.0,68.0,-13.0,162.0,-64.0,84.0,-72.0
-76.0,-53.0,139.0,-6.0,119.0,28.0,74.0,-87.0
-223.0,-23.0,-11.0,-33.0,89.0,61.0,55.0,-105.0
-357.0,-56.0,-151.0,-44.0,89.0,66.0,60.0,-85.0
-698.0,-101.0,-283.0,-1.0,109.0,106.0,61.0,-83.0
-1146.0,-114.0,-298.0,-32.0,78.0,88.0,19.0,-63.0
-844.0,-91.0,-324.0,-37.0,41.0,129.0,28.0,-63.0
-368.0,-26.0,-292.0,22.0,69.0,101.0,37.0,-52.0
-119.0,-30.0,-151.0,39.0,111.0,87.0,7.0,-64.0
538.0,-15.0,-429.0,-23.0,105.0,88.0,14.0,-50.0
716.0,13.0,-741.0,-48.0,118.0,53.0,8.0,-25.0
725.0,16.0,-414.0,-68.0,121.0,29.0,-21.0,-33.0
654.0,-7.0,-60.0,-25.0,125.0,26.0,-1.0,-6.0
399.0,4.0,123.0,-2.0,130.0,30.0,-20.0,-17.0
69.0,99.0,394.0,-41.0,129.0,25.0,-29.0,13.0
-428.0,105.0,419.0,-14.0,161.0,36.0,7.0,56.0
-87.0,99.0,364.0,7.0,100.0,25.0,-22.0,27.0
626.0,6.0,218.0,52.0,4.0,30.0,-43.0,25.0
1221.0,-39.0,72.0,35.0,-52.0,46.0,-43.0,31.0
1384.0,-57.0,59.0,18.0,-79.0,62.0,-52.0,44.0
1090.0,-83.0,71.0,56.0,-83.0,78.0,-32.0,27.0
1059.0,91.0,130.0,51.0,-140.0,131.0,-16.0,16.0
660.0,168.0,-1.0,32.0,-172.0,177.0,-61.0,31.0
-37.0,117.0,-155.0,-16.0,-190.0,103.0,-69.0,3.0
-654.0,49.0,-206.0,-85.0,-239.0,-14.0,-64.0,-15.0
-999.0,15.0,-340.0,-83.0,-291.0,-35.0,-42.0,-50.0
-1096.0,-23.0,-151.0,-45.0,-346.0,-23.0,-26.0,-93.0
-1211.0,34.0,11.0,-64.0,-326.0,16.0,-33.0,-46.0
-844.0,46.0,-194.0,-77.0,-306.0,81.0,-23.0,-16.0
-564.0,0.0,-1022.0,-88.0,-356.0,59.0,-22.0,-15.0
-386.0,-36.0,-2150.0,-42.0,-398.0,80.0,-15.0,1.0
-258.0,-64.0,-1362.0,-35.0,-421.0,114.0,-39.0,-34.0
-188.0,-19.0,83.0,-76.0,-443.0,2.0,-39.0,-11.0
-123.0,-46.0,931.0,-36.0,-374.0,-46.0,-67.0,5.0
-64.0,-41.0,1509.0,-82.0,-315.0,-167.0,-82.0,-6.0
-25.0,-52.0,911.0,-80.0,-270.0,-342.0,-65.0,4.0
-81.0,-80.0,241.0,-67.0,-180.0,-289.0,-66.0,21.0
-44.0,-84.0,241.0,-39.0,-168.0,-261.0,-41.0,82.0
-86.0,-54.0,651.0,26.0,-148.0,-116.0,-47.0,69.0
-82.0,-50.0,850.0,-16.0,-65.0,133.0,-32.0,51.0
-2.0,-70.0,1322.0,-32.0,7.0,254.0,-15.0,68.0
21.0,-44.0,1444.0,-36.0,37.0,211.0,-6.0,106.0
74.0,-17.0,630.0,8.0,1.0,118.0,8.0,100.0
98.0,52.0,181.0,29.0,-21.0,4.0,-25.0,62.0
56.0,37.0,-194.0,-11.0,-7.0,-175.0,-22.0,80.0
39.0,41.0,-141.0,28.0,114.0,-281.0,-2.0,106.0
62.0,59.0,-167.0,26.0,271.0,-447.0,-7.0,88.0
106.0,34.0,-334.0,0.0,348.0,-282.0,17.0,67.0
42.0,33.0,-350.0,25.0,358.0,-61.0,48.0,124.0
-8.0,46.0,-682.0,26.0,281.0,-155.0,37.0,104.0
-28.0,62.0,-1013.0,-17.0,281.0,-83.0,14.0,53.0
-19.0,34.0,-774.0,-25.0,348.0,-82.0,35.0,61.0
96.0,62.0,-6.0,-11.0,349.0,-98.0,23.0,42.0
137.0,34.0,449.0,-46.0,338.0,-113.0,4.0,59.0
202.0,38.0,801.0,-44.0,314.0,-56.0,29.0,33.0
196.0,54.0,762.0,-15.0,261.0,-89.0,58.0,8.0
82.0,15.0,634.0,-17.0,253.0,-189.0,41.0,24.0
24.0,37.0,402.0,-11.0,237.0,-25.0,24.0,32.0
21.0,41.0,88.0,2.0,233.0,5.0,34.0,1.0
31.0,27.0,-101.0,22.0,283.0,-10.0,-4.0,10.0
-50.0,17.0,-445.0,-35.0,296.0,-3.0,47.0,8.0
-87.0,22.0,-393.0,-48.0,274.0,-92.0,99.0,-8.0
-75.0,11.0,-551.0,16.0,270.0,-47.0,77.0,5.0
-54.0,33.0,-585.0,50.0,267.0,7.0,84.0,9.0
-26.0,14.0,-247.0,66.0,265.0,51.0,120.0,24.0
16.0,1.0,-63.0,23.0,242.0,130.0,210.0,19.0
33.0,27.0,-82.0,-37.0,180.0,123.0,219.0,24.0
-29.0,36.0,-409.0,-49.0,177.0,180.0,183.0,30.0
-120.0,44.0,-538.0,-9.0,235.0,209.0,191.0,37.0
-171.0,30.0,-287.0,-13.0,267.0,87.0,160.0,10.0
-188.0,53.0,-129.0,-14.0,282.0,23.0,172.0,-44.0
-181.0,8.0,-66.0,35.0,346.0,33.0,152.0,-7.0
-518.0,-120.0,15.0,28.0,367.0,35.0,145.0,19.0
-1546.0,-289.0,59.0,40.0,275.0,33.0,143.0,14.0
-1882.0,-340.0,36.0,45.0,227.0,10.0,113.0,11.0
-698.0,-147.0,-212.0,46.0,259.0,54.0,126.0,13.0
811.0,-35.0,-328.0,42.0,285.0,58.0,131.0,30.0
1791.0,7.0,-33.0,32.0,330.0,-1.0,148.0,-14.0
2222.0,8.0,180.0,3.0,310.0,0.0,126.0,12.0
2028.0,18.0,284.0,-11.0,227.0,-61.0,155.0,37.0
1420.0,17.0,199.0,-12.0,180.0,-72.0,160.0,1.0
701.0,-73.0,-220.0,-37.0,169.0,-57.0,138.0,9.0
7.0,5.0,-389.0,-4.0,237.0,-84.0,154.0,-2.0
-277.0,83.0,-500.0,31.0,280.0,-11.0,142.0,-46.0
-301.0,105.0,-154.0,3.0,242.0,30.0,130.0,-21.0
-523.0,76.0,349.0,19.0,179.0,73.0,113.0,-23.0
-836.0,50.0,507.0,26.0,130.0,126.0,107.0,-42.0
-807.0,99.0,757.0,-25.0,135.0,139.0,120.0,-39.0
-450.0,160.0,840.0,-104.0,177.0,179.0,82.0,-52.0
-220.0,125.0,517.0,-166.0,248.0,162.0,59.0,-65.0
-94.0,68.0,385.0,-105.0,290.0,106.0,34.0,-40.0
-67.0,29.0,507.0,-69.0,302.0,65.0,10.0,-49.0
-124.0,-34.0,92.0,-93.0,314.0,86.0,15.0,-77.0
-128.0,-3.0,9.0,19.0,385.0,97.0,-11.0,-49.0
-327.0,-12.0,-24.0,31.0,403.0,87.0,-14.0,-71.0
-569.0,-36.0,-271.0,27.0,432.0,127.0,-15.0,-40.0
-589.0,-8.0,-224.0,35.0,519.0,177.0,-8.0,-31.0
-560.0,-8.0,-242.0,-14.0,505.0,206.0,-23.0,-46.0
-327.0,-8.0,-198.0,27.0,365.0,115.0,-26.0,-14.0
137.0,-9.0,-259.0,0.0,193.0,68.0,-27.0,20.0
406.0,0.0,-194.0,-4.0,73.0,62.0,-24.0,3.0
79.0,-25.0,-149.0,-15.0,-49.0,20.0,9.0,-22.0
-428.0,-19.0,-139.0,9.0,-46.0,20.0,-30.0,-37.0
-175.0,-33.0,-102.0,22.0,23.0,39.0,-14.0,-65.0
10.0,-53.0,-107.0,-7.0,6.0,42.0,4.0,-99.0
-12.0,-37.0,-52.0,10.0,32.0,24.0,-12.0,-100.0
267.0,-39.0,-83.0,-56.0,65.0,25.0,44.0,-72.0
713.0,-58.0,-80.0,-121.0,70.0,27.0,32.0,-90.0
973.0,-46.0,-149.0,-159.0,52.0,27.0,-12.0,-69.0
905.0,-28.0,-146.0,-172.0,-20.0,23.0,12.0,-49.0
900.0,-2.0,-153.0,-162.0,-47.0,-5.0,33.0,-26.0
725.0,18.0,-159.0,-113.0,-17.0,-57.0,64.0,16.0
701.0,5.0,-55.0,-31.0,4.0,-37.0,82.0,37.0
424.0,28.0,-30.0,-4.0,-23.0,-55.0,54.0,22.0
68.0,44.0,-48.0,-13.0,-52.0,-73.0,54.0,-9.0
-85.0,60.0,-36.0,-37.0,-141.0,-24.0,38.0,-18.0
-280.0,70.0,-41.0,-46.0,-281.0,-5.0,36.0,-43.0
-419.0,31.0,-14.0,-40.0,-356.0,64.0,50.0,-66.0
-634.0,28.0,30.0,-17.0,-326.0,36.0,61.0,-91.0
-453.0,27.0,2.0,-6.0,-222.0,43.0,32.0,-59.0
-392.0,20.0,25.0,-24.0,-114.0,80.0,26.0,-54.0
-453.0,16.0,-1.0,-10.0,-51.0,-14.0,32.0,-64.0
-348.0,29.0,3.0,-14.0,16.0,-72.0,30.0,-35.0
-319.0,53.0,18.0,7.0,39.0,67.0,44.0,-7.0
-193.0,44.0,-18.0,11.0,-34.0,152.0,72.0,3.0
-182.0,36.0,-27.0,-17.0,-16.0,146.0,88.0,-16.0
-149.0,36.0,-224.0,6.0,-64.0,70.0,87.0,-31.0
-100.0,16.0,-479.0,12.0,-170.0,32.0,92.0,-39.0
-117.0,-19.0,-368.0,13.0,-228.0,80.0,79.0,-42.0
-116.0,-64.0,-252.0,19.0,-267.0,-22.0,81.0,-55.0
-125.0,-111.0,-499.0,11.0,-242.0,-62.0,65.0,-26.0
-88.0,-113.0,-258.0,38.0,-263.0,-51.0,61.0,6.0
-40.0,-65.0,349.0,45.0,-288.0,-38.0,39.0,-3.0
2.0,-29.0,577.0,15.0,-329.0,-50.0,2.0,-3.0
-159.0,-14.0,523.0,4.0,-349.0,-73.0,28.0,26.0
-412.0,-13.0,260.0,-36.0,-339.0,-67.0,19.0,9.0
-479.0,-18.0,152.0,-47.0,-356.0,-58.0,21.0,9.0
-208.0,-7.0,-287.0,-11.0,-334.0,1.0,47.0,49.0
180.0,23.0,-547.0,47.0,-291.0,33.0,44.0,54.0
568.0,41.0,88.0,122.0,-319.0,40.0,85.0,47.0
834.0,9.0,198.0,170.0,-319.0,13.0,76.0,40.0
790.0,-46.0,104.0,145.0,-274.0,46.0,41.0,40.0
709.0,-60.0,378.0,98.0,-241.0,103.0,36.0,77.0
471.0,-30.0,773.0,99.0,-220.0,151.0,-4.0,95.0
163.0,39.0,1084.0,77.0,-207.0,132.0,8.0,105.0
-2.0,73.0,1127.0,-26.0,-168.0,130.0,2.0,129.0
-172.0,82.0,813.0,-189.0,-188.0,130.0,-9.0,108.0
-453.0,105.0,319.0,-181.0,-214.0,138.0,8.0,108.0
-555.0,34.0,160.0,-129.0,-268.0,158.0,2.0,117.0
-510.0,-28.0,-263.0,-184.0,-268.0,82.0,-14.0,81.0
-518.0,-22.0,-951.0,-232.0,-242.0,7.0,-35.0,78.0
-448.0,-66.0,-1036.0,-233.0,-254.0,-112.0,-6.0,61.0
-206.0,3.0,-747.0,-96.0,-177.0,-118.0,-8.0,35.0
-9.0,64.0,-702.0,-37.0,-147.0,-21.0,-34.0,43.0
40.0,60.0,-727.0,-34.0,-70.0,18.0,-68.0,18.0
109.0,64.0,-495.0,-15.0,-38.0,-86.0,-117.0,-1.0
187.0,39.0,-413.0,-28.0,-36.0,-199.0,-72.0,12.0
215.0,60.0,-473.0,12.0,-1.0,-172.0,-24.0,32.0
198.0,30.0,-959.0,38.0,-40.0,-131.0,-41.0,34.0
119.0,24.0,-1666.0,59.0,-33.0,0.0,-51.0,79.0
-18.0,22.0,-1563.0,19.0,-88.0,73.0,-28.0,100.0
-146.0,0.0,-1087.0,25.0,-121.0,-17.0,-39.0,96.0
-132.0,-23.0,-432.0,26.0,-114.0,-31.0,-51.0,119.0
-65.0,15.0,-17.0,25.0,-120.0,-9.0,-50.0,119.0
-262.0,41.0,-237.0,29.0,-140.0,23.0,-37.0,106.0
-409.0,16.0,-389.0,-6.0,-174.0,18.0,-26.0,117.0
-404.0,12.0,-171.0,30.0,-221.0,-21.0,-49.0,133.0
-413.0,-4.0,419.0,-7.0,-273.0,-9.0,-85.0,119.0
-625.0,20.0,1458.0,-38.0,-236.0,43.0,-98.0,116.0
-696.0,-9.0,2548.0,-41.0,-217.0,44.0,-35.0,120.0
-450.0,-66.0,3007.0,-24.0,-240.0,32.0,31.0,102.0
-1162.0,-77.0,3096.0,14.0,-263.0,64.0,59.0,119.0
-1547.0,-35.0,2730.0,4.0,-248.0,62.0,42.0,103.0
-348.0,5.0,2135.0,16.0,-227.0,98.0,56.0,82.0
935.0,-19.0,1423.0,22.0,-140.0,50.0,62.0,100.0
2389.0,-45.0,937.0,25.0,-34.0,37.0,64.0,137.0
3508.0,-32.0,801.0,28.0,30.0,95.0,109.0,136.0
3562.0,-3.0,474.0,84.0,60.0,58.0,90.0,153.0
3052.0,-99.0,448.0,115.0,-17.0,50.0,70.0,170.0
1866.0,-128.0,461.0,50.0,-15.0,45.0,72.0,136.0
631.0,-50.0,309.0,9.0,-26.0,35.0,42.0,137.0
-354.0,17.0,193.0,-5.0,-22.0,27.0,27.0,125.0
-1175.0,53.0,166.0,-22.0,17.0,-11.0,17.0,111.0
-1950.0,34.0,67.0,-54.0,13.0,-45.0,14.0,88.0
-2708.0,47.0,-43.0,-52.0,18.0,-85.0,2.0,69.0
-2708.0,99.0,-80.0,-62.0,-10.0,-114.0,19.0,38.0
-1735.0,147.0,-144.0,-82.0,31.0,-108.0,46.0,18.0
-547.0,91.0,-172.0,-71.0,88.0,-107.0,50.0,33.0
680.0,47.0,-204.0,-64.0,17.0,-98.0,32.0,31.0
1488.0,5.0,-244.0,-53.0,-56.0,-24.0,14.0,29.0
1559.0,-26.0,-310.0,-35.0,-66.0,10.0,-18.0,4.0
1084.0,-47.0,-340.0,-42.0,-124.0,32.0,-67.0,16.0
277.0,-45.0,-450.0,-48.0,-152.0,16.0,-76.0,35.0
-384.0,-50.0,-670.0,-55.0,-123.0,-97.0,-75.0,30.0
-649.0,-94.0,-994.0,-78.0,-52.0,-167.0,-2.0,19.0
-589.0,-59.0,-1557.0,-45.0,-18.0,-88.0,-26.0,25.0
-553.0,-53.0,-2341.0,-9.0,-39.0,-29.0,-51.0,27.0
-285.0,-34.0,-2601.0,-3.0,-52.0,1.0,-11.0,5.0
-156.0,-12.0,-1944.0,-26.0,-83.0,29.0,-56.0,-7.0
-85.0,17.0,-927.0,-28.0,-75.0,-20.0,-44.0,-13.0
-105.0,12.0,450.0,19.0,-52.0,-17.0,-37.0,10.0
-104.0,16.0,1871.0,10.0,-18.0,-65.0,-17.0,-13.0
-17.0,87.0,2859.0,41.0,24.0,-30.0,17.0,-23.0
-232.0,63.0,3185.0,83.0,47.0,-2.0,-29.0,-26.0
-428.0,26.0,2730.0,45.0,70.0,-16.0,-40.0,-82.0
-432.0,11.0,1951.0,-7.0,119.0,13.0,-1.0,-76.0
-141.0,59.0,1106.0,-105.0,218.0,9.0,-39.0,-101.0
-69.0,89.0,217.0,-78.0,242.0,76.0,17.0,-122.0
-166.0,49.0,-1003.0,13.0,230.0,75.0,87.0,-117.0
-81.0,17.0,-1769.0,2.0,208.0,56.0,37.0,-131.0
25.0,12.0,-1683.0,-2.0,147.0,61.0,49.0,-159.0
33.0,50.0,-1362.0,73.0,150.0,58.0,42.0,-194.0
-473.0,63.0,-774.0,85.0,134.0,45.0,67.0,-195.0
-1305.0,55.0,-586.0,51.0,159.0,61.0,112.0,-197.0
-1240.0,-18.0,-886.0,21.0,198.0,81.0,80.0,-187.0
-871.0,-100.0,-1279.0,8.0,212.0,53.0,84.0,-195.0
-140.0,-44.0,-976.0,10.0,222.0,97.0,72.0,-191.0
1194.0,19.0,-499.0,-33.0,180.0,123.0,64.0,-180.0
1753.0,-13.0,-54.0,-83.0,144.0,94.0,65.0,-163.0
2067.0,-68.0,975.0,-81.0,147.0,97.0,58.0,-162.0
1623.0,-80.0,1127.0,-30.0,162.0,160.0,67.0,-165.0
1051.0,0.0,852.0,-17.0,227.0,180.0,87.0,-122.0
530.0,52.0,349.0,-1.0,235.0,159.0,73.0,-131.0
-215.0,75.0,-280.0,-31.0,178.0,123.0,21.0,-147.0
-527.0,71.0,-738.0,-20.0,159.0,99.0,9.0,-149.0
-784.0,40.0,-932.0,10.0,108.0,119.0,2.0,-163.0
-493.0,17.0,-1036.0,-60.0,68.0,88.0,73.0,-136.0
-327.0,-21.0,-1746.0,-19.0,33.0,50.0,86.0,-128.0
-56.0,-41.0,-2144.0,-22.0,40.0,48.0,37.0,-122.0
-63.0,-40.0,-1667.0,-9.0,102.0,58.0,94.0,-97.0
-209.0,-37.0,-892.0,12.0,132.0,52.0,94.0,-71.0
-97.0,-100.0,223.0,6.0,148.0,50.0,99.0,-76.0
-209.0,-88.0,801.0,-46.0,190.0,73.0,72.0,-76.0
-323.0,-22.0,923.0,-119.0,234.0,44.0,17.0,-39.0
-714.0,-37.0,1158.0,-88.0,159.0,-10.0,36.0,-28.0
-1162.0,-21.0,908.0,-92.0,70.0,13.0,-20.0,-23.0
-973.0,-18.0,429.0,-97.0,70.0,81.0,-21.0,24.0
-331.0,5.0,-212.0,-99.0,114.0,138.0,3.0,66.0
143.0,-5.0,-340.0,-3.0,184.0,180.0,-1.0,76.0
896.0,-29.0,-232.0,65.0,207.0,150.0,1.0,102.0
1661.0,-83.0,-538.0,48.0,195.0,99.0,38.0,133.0
1766.0,-130.0,-601.0,54.0,142.0,26.0,59.0,151.0
1500.0,-86.0,-364.0,31.0,99.0,-58.0,20.0,149.0
885.0,17.0,-3.0,40.0,135.0,-97.0,-2.0,148.0
104.0,81.0,171.0,42.0,118.0,-134.0,-7.0,168.0
-548.0,53.0,190.0,19.0,129.0,-88.0,32.0,187.0
-1081.0,138.0,-32.0,-4.0,188.0,9.0,43.0,178.0
-1495.0,147.0,-450.0,-7.0,148.0,41.0,51.0,153.0
-1324.0,120.0,-709.0,3.0,100.0,-4.0,71.0,195.0
-599.0,105.0,-841.0,-44.0,91.0,-6.0,84.0,221.0
-20.0,69.0,-1263.0,-84.0,76.0,0.0,90.0,222.0
444.0,72.0,-2086.0,-45.0,61.0,1.0,50.0,227.0
725.0,55.0,-2542.0,-30.0,64.0,7.0,43.0,227.0
731.0,37.0,-1852.0,-21.0,26.0,9.0,29.0,267.0
473.0,36.0,-747.0,-20.0,48.0,56.0,19.0,271.0
98.0,33.0,663.0,-34.0,100.0,111.0,27.0,261.0
-217.0,40.0,2095.0,-41.0,62.0,115.0,-41.0,218.0
-292.0,75.0,2483.0,-34.0,31.0,96.0,-25.0,239.0
-196.0,91.0,2266.0,-11.0,10.0,84.0,19.0,243.0
-649.0,74.0,1574.0,-29.0,-16.0,32.0,-23.0,190.0
-1853.0,15.0,450.0,-44.0,-20.0,-22.0,-26.0,174.0
-2631.0,-6.0,-912.0,-41.0,-65.0,-202.0,-50.0,135.0
-2329.0,-21.0,-1193.0,-66.0,-99.0,-304.0,-67.0,141.0
-1305.0,-59.0,-1150.0,-9.0,-42.0,-124.0,-45.0,120.0
351.0,-93.0,-1387.0,25.0,20.0,-123.0,-3.0,112.0
2132.0,-118.0,-393.0,-34.0,32.0,-227.0,-14.0,112.0
3182.0,-82.0,-96.0,-48.0,41.0,-136.0,-14.0,131.0
3052.0,-36.0,35.0,-26.0,30.0,-92.0,-49.0,123.0
1885.0,-24.0,728.0,-36.0,13.0,-59.0,-92.0,91.0
863.0,-47.0,779.0,-41.0,33.0,34.0,-42.0,116.0
528.0,-19.0,1314.0,-15.0,64.0,90.0,-36.0,95.0
353.0,27.0,1769.0,-6.0,98.0,141.0,-5.0,73.0
295.0,52.0,1900.0,2.0,216.0,262.0,41.0,76.0
169.0,85.0,2005.0,12.0,237.0,276.0,47.0,82.0
-29.0,67.0,1822.0,22.0,216.0,281.0,5.0,50.0
-179.0,52.0,1571.0,64.0,220.0,207.0,5.0,21.0
-313.0,11.0,931.0,55.0,215.0,49.0,17.0,25.0
-518.0,-35.0,415.0,48.0,205.0,-69.0,20.0,33.0
-771.0,-36.0,19.0,84.0,162.0,-320.0,78.0,37.0
-1110.0,-125.0,-641.0,112.0,140.0,-286.0,36.0,16.0
-1324.0,-131.0,-1036.0,67.0,130.0,-175.0,16.0,-5.0
-836.0,-84.0,-1019.0,15.0,157.0,-16.0,-32.0,-17.0
-417.0,-85.0,-1028.0,2.0,49.0,319.0,-20.0,-43.0
-172.0,-62.0,-912.0,-29.0,-4.0,213.0,15.0,-70.0
-46.0,-16.0,-716.0,-21.0,72.0,248.0,-14.0,-40.0
-82.0,-15.0,-651.0,-22.0,58.0,301.0,8.0,-32.0
-138.0,-47.0,-1019.0,-10.0,128.0,180.0,20.0,-26.0
-262.0,-18.0,-1581.0,-31.0,215.0,246.0,70.0,-34.0
-109.0,-5.0,-1462.0,-75.0,232.0,220.0,82.0,-30.0
-41.0,28.0,-1084.0,-94.0,220.0,237.0,76.0,25.0
39.0,81.0,-515.0,-101.0,260.0,211.0,61.0,59.0
163.0,111.0,180.0,-69.0,308.0,197.0,54.0,83.0
157.0,99.0,476.0,-38.0,309.0,215.0,18.0,77.0
27.0,26.0,508.0,-49.0,240.0,220.0,41.0,86.0
-42.0,28.0,325.0,-75.0,182.0,217.0,14.0,59.0
47.0,17.0,122.0,-68.0,141.0,147.0,-4.0,53.0
60.0,20.0,-241.0,-109.0,112.0,123.0,44.0,23.0
98.0,19.0,-499.0,-118.0,147.0,124.0,19.0,-129.0
27.0,-11.0,-679.0,-106.0,155.0,172.0,-2.0,-348.0
-11.0,-11.0,-515.0,-68.0,171.0,183.0,13.0,-401.0
-36.0,-27.0,-154.0,-12.0,131.0,116.0,9.0,-26.0
33.0,-21.0,-277.0,-1.0,82.0,81.0,-12.0,30.0
98.0,-5.0,-291.0,15.0,94.0,100.0,17.0,17.0
37.0,13.0,-631.0,-9.0,103.0,130.0,-22.0,136.0
4.0,-6.0,-886.0,8.0,143.0,141.0,2.0,156.0
1.0,-4.0,-1007.0,16.0,230.0,180.0,27.0,382.0
58.0,30.0,-1166.0,46.0,261.0,172.0,18.0,332.0
60.0,5.0,-666.0,65.0,288.0,139.0,21.0,239.0
77.0,-7.0,-209.0,69.0,208.0,58.0,-3.0,201.0
90.0,-17.0,385.0,51.0,130.0,40.0,13.0,148.0
120.0,-41.0,857.0,0.0,184.0,79.0,-17.0,139.0
52.0,-33.0,728.0,-30.0,222.0,-28.0,4.0,28.0
15.0,-20.0,16.0,-76.0,314.0,-61.0,24.0,-3.0
14.0,3.0,-1101.0,-88.0,279.0,-37.0,-6.0,-67.0
5.0,-5.0,-1862.0,-61.0,128.0,-61.0,2.0,-116.0
35.0,-8.0,-2448.0,-61.0,61.0,-47.0,-2.0,-105.0
-1.0,16.0,-2717.0,-61.0,63.0,-66.0,-8.0,-111.0
-4.0,4.0,-1917.0,-26.0,3.0,-68.0,9.0,-79.0
-21.0,28.0,-248.0,-16.0,-133.0,-59.0,33.0,-40.0
-33.0,60.0,1127.0,5.0,-295.0,-88.0,30.0,-44.0
-79.0,44.0,2130.0,-31.0,-356.0,-69.0,27.0,-28.0
-71.0,51.0,2520.0,-36.0,-356.0,-50.0,23.0,-13.0
-67.0,52.0,2160.0,-16.0,-339.0,-38.0,26.0,-36.0
-106.0,60.0,1769.0,23.0,-326.0,-36.0,50.0,1.0
-76.0,62.0,1228.0,25.0,-335.0,-45.0,32.0,17.0
-15.0,40.0,651.0,13.0,-295.0,-21.0,35.0,-16.0
37.0,48.0,48.0,63.0,-269.0,-2.0,54.0,1.0
27.0,50.0,-251.0,68.0,-272.0,-18.0,15.0,-45.0
48.0,7.0,-503.0,44.0,-259.0,-29.0,25.0,-55.0
33.0,19.0,-874.0,3.0,-197.0,10.0,50.0,-17.0
37.0,20.0,-971.0,20.0,-168.0,-7.0,38.0,-34.0
38.0,-7.0,-841.0,43.0,-172.0,-32.0,42.0,-19.0
-26.0,4.0,-661.0,45.0,-152.0,19.0,38.0,-60.0
-5.0,-8.0,-373.0,12.0,-189.0,50.0,29.0,-92.0
8.0,5.0,67.0,-12.0,-201.0,39.0,20.0,-134.0
27.0,-22.0,376.0,12.0,-147.0,49.0,34.0,-139.0
-128.0,-18.0,533.0,41.0,-119.0,40.0,62.0,-126.0
-676.0,26.0,496.0,37.0,-99.0,39.0,64.0,-181.0
-1300.0,-8.0,402.0,3.0,-73.0,44.0,38.0,-189.0
-1752.0,-24.0,410.0,-28.0,-78.0,-26.0,20.0,-240.0
-1402.0,-34.0,465.0,-25.0,-86.0,-8.0,-1.0,-220.0
-95.0,-66.0,484.0,-16.0,-96.0,-32.0,-4.0,-212.0
1546.0,-64.0,436.0,-10.0,-105.0,-101.0,23.0,-236.0
2793.0,-49.0,345.0,24.0,-123.0,-45.0,19.0,-203.0
3041.0,-62.0,385.0,-9.0,-139.0,-49.0,24.0,-214.0
2545.0,-100.0,436.0,-30.0,-124.0,-7.0,45.0,-161.0
1572.0,-100.0,410.0,-28.0,-131.0,12.0,31.0,-158.0
477.0,-63.0,546.0,-23.0,-168.0,-45.0,29.0,-127.0
-844.0,-49.0,634.0,-20.0,-160.0,-15.0,25.0,-108.0
-1732.0,-7.0,728.0,-34.0,-127.0,-54.0,19.0,-136.0
-1717.0,93.0,807.0,-66.0,-73.0,-56.0,15.0,-94.0
-1430.0,175.0,708.0,-66.0,-48.0,-40.0,17.0,-101.0
-1019.0,199.0,657.0,-45.0,0.0,-35.0,4.0,-67.0
-732.0,200.0,716.0,-52.0,28.0,-27.0,13.0,-49.0
-433.0,144.0,708.0,-65.0,51.0,-54.0,12.0,-26.0
-255.0,111.0,693.0,-65.0,82.0,-79.0,-6.0,6.0
-89.0,99.0,850.0,-70.0,56.0,-125.0,5.0,-2.0
-161.0,68.0,996.0,-84.0,47.0,-94.0,-3.0,22.0
-396.0,34.0,931.0,-76.0,5.0,-90.0,-22.0,21.0
-383.0,-70.0,858.0,-75.0,-7.0,-82.0,-64.0,39.0
-321.0,-79.0,903.0,-105.0,-24.0,-74.0,-51.0,51.0
-481.0,-79.0,866.0,-69.0,-14.0,-94.0,-30.0,54.0
-714.0,-100.0,787.0,-26.0,89.0,-118.0,-28.0,99.0
-234.0,-83.0,785.0,-24.0,188.0,-90.0,-10.0,119.0
416.0,-101.0,838.0,5.0,282.0,-21.0,-3.0,138.0
929.0,-50.0,852.0,3.0,375.0,-46.0,0.0,138.0
1226.0,-69.0,830.0,-13.0,462.0,-24.0,18.0,117.0
1045.0,-147.0,852.0,0.0,538.0,-7.0,39.0,148.0
627.0,-151.0,858.0,26.0,575.0,-33.0,60.0,159.0
149.0,-71.0,857.0,22.0,562.0,6.0,78.0,141.0
16.0,-45.0,915.0,21.0,505.0,3.0,40.0,137.0
-64.0,-23.0,937.0,28.0,509.0,-102.0,44.0,125.0
25.0,51.0,937.0,2.0,497.0,-224.0,69.0,100.0
8.0,36.0,964.0,2.0,432.0,-145.0,59.0,51.0
-634.0,8.0,828.0,5.0,314.0,-51.0,35.0,31.0
-1016.0,-45.0,657.0,-2.0,241.0,-49.0,42.0,47.0
-535.0,12.0,582.0,2.0,266.0,29.0,38.0,34.0
44.0,87.0,572.0,-5.0,212.0,25.0,35.0,15.0
582.0,83.0,572.0,18.0,141.0,35.0,54.0,46.0
798.0,71.0,498.0,6.0,82.0,25.0,46.0,38.0
564.0,7.0,401.0,22.0,14.0,-3.0,62.0,31.0
281.0,-21.0,276.0,-2.0,-24.0,40.0,48.0,32.0
-33.0,-7.0,104.0,-72.0,-23.0,47.0,22.0,21.0
-201.0,18.0,-71.0,-91.0,-51.0,73.0,24.0,25.0
-222.0,28.0,-193.0,-85.0,-26.0,56.0,10.0,36.0
-186.0,-3.0,-380.0,-41.0,-27.0,49.0,8.0,67.0
-185.0,-3.0,-450.0,-51.0,-82.0,75.0,-3.0,31.0
-144.0,-8.0,-403.0,-28.0,-85.0,40.0,17.0,27.0
-154.0,-31.0,-393.0,7.0,-174.0,25.0,6.0,24.0
-188.0,-15.0,-338.0,-21.0,-204.0,75.0,6.0,12.0
-218.0,2.0,-401.0,-40.0,-170.0,77.0,11.0,28.0
-175.0,-2.0,-442.0,-34.0,-193.0,32.0,-10.0,22.0
-27.0,28.0,-436.0,-57.0,-223.0,28.0,5.0,40.0
-27.0,25.0,-572.0,-84.0,-321.0,77.0,4.0,22.0
3.0,0.0,-698.0,-75.0,-451.0,89.0,21.0,44.0
38.0,15.0,-622.0,-28.0,-566.0,74.0,16.0,73.0
48.0,23.0,-393.0,30.0,-608.0,58.0,39.0,73.0
54.0,37.0,-328.0,35.0,-534.0,3.0,42.0,83.0
31.0,46.0,-285.0,37.0,-447.0,68.0,49.0,87.0
60.0,52.0,-363.0,55.0,-403.0,119.0,81.0,53.0
78.0,59.0,-490.0,56.0,-334.0,78.0,78.0,66.0
86.0,75.0,-515.0,26.0,-345.0,90.0,88.0,85.0
93.0,69.0,-538.0,18.0,-334.0,153.0,80.0,22.0
72.0,57.0,-519.0,2.0,-291.0,46.0,41.0,20.0
78.0,64.0,-552.0,16.0,-288.0,-91.0,38.0,5.0
86.0,70.0,-572.0,27.0,-250.0,-72.0,44.0,-44.0
44.0,45.0,-572.0,-22.0,-291.0,-37.0,8.0,-38.0
51.0,54.0,-531.0,-19.0,-246.0,-16.0,38.0,-70.0
70.0,55.0,-519.0,7.0,-102.0,-71.0,30.0,-75.0
58.0,41.0,-511.0,13.0,-43.0,-88.0,25.0,-79.0
68.0,62.0,-442.0,16.0,-34.0,-84.0,37.0,-95.0
66.0,13.0,-454.0,12.0,18.0,-112.0,7.0,-99.0
13.0,3.0,-463.0,4.0,72.0,-133.0,37.0,-97.0
18.0,7.0,-547.0,-22.0,61.0,-175.0,20.0,-136.0
36.0,25.0,-747.0,-40.0,61.0,-182.0,13.0,-144.0
17.0,16.0,-1127.0,-30.0,58.0,-190.0,34.0,-123.0
18.0,-12.0,-1471.0,0.0,65.0,-213.0,29.0,-155.0
7.0,-4.0,-1404.0,22.0,31.0,-200.0,39.0,-161.0
-4.0,-26.0,-1036.0,1.0,31.0,-187.0,30.0,-175.0
-37.0,-23.0,-405.0,-15.0,65.0,-169.0,18.0,-158.0
-1.0,1.0,225.0,-38.0,48.0,-157.0,-1.0,-162.0
27.0,-24.0,638.0,-67.0,53.0,-210.0,-15.0,-161.0
-4.0,-11.0,866.0,-84.0,60.0,-198.0,-13.0,-183.0
-1.0,-16.0,878.0,-78.0,83.0,-196.0,-47.0,-189.0
8.0,-23.0,650.0,-18.0,110.0,-182.0,-32.0,-183.0
-37.0,-23.0,337.0,6.0,135.0,-157.0,-21.0,-186.0
-37.0,-25.0,-22.0,33.0,85.0,-155.0,-37.0,-170.0
-8.0,-36.0,-298.0,9.0,9.0,-122.0,-54.0,-187.0
-62.0,-53.0,-422.0,-28.0,-52.0,-101.0,-88.0,-186.0
-60.0,-52.0,-572.0,-48.0,-111.0,-37.0,-101.0,-240.0
-39.0,-72.0,-422.0,-67.0,-136.0,-6.0,-82.0,-196.0
-55.0,-57.0,-363.0,-63.0,-108.0,23.0,-67.0,-143.0
-166.0,-35.0,-109.0,-32.0,-46.0,76.0,-60.0,-105.0
-250.0,-18.0,114.0,-30.0,-37.0,86.0,-39.0,-78.0
-238.0,-30.0,5.0,-67.0,-58.0,142.0,-36.0,-75.0
-647.0,-31.0,-168.0,-19.0,7.0,197.0,5.0,-46.0
-942.0,-43.0,-324.0,43.0,67.0,183.0,1.0,-46.0
-433.0,-36.0,-318.0,28.0,44.0,220.0,-1.0,-37.0
193.0,-22.0,-503.0,28.0,11.0,246.0,-14.0,-25.0
692.0,-16.0,-759.0,93.0,-15.0,209.0,-2.0,10.0
1280.0,5.0,-544.0,59.0,-5.0,248.0,31.0,51.0
1494.0,-14.0,-169.0,-42.0,-7.0,271.0,14.0,90.0
1319.0,0.0,-263.0,-104.0,-31.0,283.0,16.0,209.0
961.0,20.0,-643.0,-155.0,-29.0,311.0,42.0,322.0
318.0,-26.0,-1153.0,-141.0,5.0,311.0,49.0,354.0
-136.0,-25.0,-811.0,-77.0,51.0,321.0,50.0,384.0
-428.0,24.0,-36.0,-23.0,6.0,299.0,74.0,397.0
-620.0,26.0,433.0,-4.0,-29.0,303.0,49.0,373.0
-765.0,80.0,480.0,-8.0,-4.0,292.0,65.0,342.0
-915.0,148.0,23.0,9.0,26.0,274.0,64.0,314.0
-821.0,140.0,-328.0,10.0,60.0,262.0,56.0,163.0
-612.0,132.0,-515.0,14.0,69.0,256.0,87.0,-3.0
-366.0,79.0,-328.0,34.0,104.0,290.0,89.0,235.0
-136.0,28.0,276.0,4.0,129.0,248.0,81.0,474.0
-25.0,-4.0,611.0,12.0,166.0,219.0,67.0,432.0
8.0,-9.0,712.0,32.0,168.0,220.0,79.0,499.0
-2.0,-16.0,807.0,36.0,125.0,232.0,73.0,456.0
22.0,-22.0,708.0,48.0,110.0,266.0,68.0,474.0
25.0,-13.0,415.0,20.0,66.0,216.0,76.0,474.0
25.0,-37.0,10.0,38.0,3.0,183.0,40.0,448.0
52.0,-17.0,-271.0,60.0,-35.0,184.0,41.0,465.0
43.0,-6.0,-354.0,12.0,-65.0,167.0,20.0,379.0
27.0,-28.0,-348.0,-13.0,-62.0,142.0,14.0,409.0
-34.0,-49.0,-259.0,-5.0,0.0,183.0,40.0,383.0
-98.0,-24.0,-194.0,13.0,25.0,197.0,41.0,361.0
36.0,-36.0,-125.0,0.0,5.0,165.0,28.0,338.0
125.0,-55.0,-129.0,-22.0,18.0,138.0,6.0,334.0
137.0,-80.0,-101.0,-14.0,28.0,138.0,17.0,332.0
195.0,-94.0,-54.0,-59.0,47.0,148.0,4.0,286.0
188.0,-62.0,-62.0,-50.0,61.0,129.0,5.0,271.0
202.0,-66.0,-70.0,-21.0,50.0,87.0,28.0,264.0
178.0,-22.0,-87.0,-54.0,68.0,69.0,30.0,242.0
103.0,-32.0,-68.0,-52.0,106.0,63.0,41.0,182.0
25.0,-63.0,-56.0,-50.0,112.0,34.0,69.0,182.0
-49.0,-39.0,-39.0,-60.0,114.0,22.0,60.0,174.0
-102.0,-28.0,-192.0,-37.0,142.0,-16.0,69.0,158.0
-125.0,-9.0,-694.0,-19.0,180.0,-6.0,99.0,153.0
-135.0,20.0,-847.0,-8.0,219.0,10.0,74.0,135.0
-119.0,43.0,-356.0,-9.0,245.0,5.0,61.0,91.0
-47.0,51.0,134.0,-39.0,232.0,4.0,58.0,56.0
-69.0,70.0,638.0,-35.0,196.0,-35.0,54.0,16.0
-52.0,77.0,923.0,-39.0,245.0,-28.0,70.0,-46.0
12.0,62.0,866.0,-14.0,220.0,-43.0,56.0,-95.0
-32.0,48.0,621.0,-9.0,192.0,-106.0,75.0,-78.0
-14.0,58.0,325.0,-28.0,222.0,-143.0,95.0,-31.0
-11.0,36.0,215.0,-10.0,170.0,-182.0,54.0,-66.0
-14.0,40.0,150.0,-5.0,140.0,-238.0,45.0,-85.0
-12.0,34.0,45.0,12.0,130.0,-175.0,43.0,-107.0
-12.0,30.0,-106.0,1.0,125.0,-129.0,54.0,-133.0
-13.0,34.0,1.0,-4.0,135.0,-135.0,54.0,-144.0
-29.0,10.0,75.0,4.0,112.0,-106.0,21.0,-168.0
-9.0,14.0,-29.0,-16.0,98.0,-135.0,5.0,-217.0
-7.0,-17.0,-31.0,-2.0,133.0,-94.0,6.0,-226.0
-33.0,-5.0,-122.0,-7.0,154.0,-92.0,28.0,-234.0
-34.0,-8.0,-135.0,-42.0,178.0,-106.0,27.0,-267.0
-16.0,-20.0,-41.0,-48.0,150.0,-83.0,22.0,-256.0
6.0,20.0,63.0,-16.0,163.0,-100.0,63.0,-240.0
11.0,46.0,195.0,40.0,151.0,-61.0,109.0,-211.0
-1.0,49.0,311.0,32.0,-2.0,-51.0,83.0,-240.0
10.0,16.0,251.0,13.0,-58.0,-42.0,63.0,-260.0
4.0,27.0,110.0,18.0,-42.0,-6.0,61.0,-257.0
-20.0,30.0,72.0,-4.0,49.0,7.0,81.0,-235.0
-17.0,27.0,37.0,16.0,139.0,1.0,62.0,-201.0
-17.0,22.0,1.0,-2.0,106.0,13.0,19.0,-211.0
-6.0,52.0,-31.0,-11.0,82.0,12.0,50.0,-196.0
0.0,30.0,-111.0,4.0,43.0,-45.0,53.0,-183.0
-17.0,22.0,-119.0,-17.0,-4.0,6.0,31.0,-180.0
-4.0,48.0,-70.0,-18.0,-16.0,58.0,31.0,-197.0
14.0,28.0,-82.0,-40.0,-26.0,-18.0,15.0,-189.0
-3.0,16.0,-144.0,-51.0,-65.0,-82.0,-2.0,-178.0
-37.0,-32.0,-165.0,-45.0,-87.0,-151.0,19.0,-183.0
-56.0,-34.0,-78.0,-14.0,-88.0,-220.0,7.0,-170.0
-16.0,-22.0,-138.0,-24.0,-59.0,-112.0,-8.0,-158.0
-9.0,15.0,-224.0,-63.0,18.0,-74.0,-16.0,-120.0
31.0,2.0,-90.0,-39.0,2.0,-87.0,-23.0,-105.0
28.0,-19.0,15.0,-34.0,-12.0,14.0,-10.0,-59.0
-17.0,-13.0,55.0,-6.0,-14.0,51.0,18.0,-44.0
-31.0,-14.0,122.0,-22.0,-29.0,99.0,24.0,-40.0
-41.0,-12.0,105.0,-40.0,-28.0,81.0,20.0,-34.0
-48.0,-70.0,24.0,9.0,-56.0,37.0,33.0,-40.0
-29.0,-32.0,47.0,9.0,-43.0,76.0,27.0,-6.0
7.0,-43.0,66.0,-24.0,-46.0,66.0,20.0,-15.0
-9.0,-34.0,125.0,-28.0,-87.0,44.0,16.0,-7.0
-120.0,-24.0,207.0,4.0,-91.0,47.0,17.0,13.0
-176.0,-67.0,152.0,20.0,-95.0,107.0,21.0,16.0
-379.0,-15.0,124.0,-21.0,-42.0,156.0,20.0,9.0
-1411.0,-31.0,148.0,-11.0,0.0,164.0,15.0,-11.0
-2173.0,-25.0,158.0,30.0,-38.0,194.0,25.0,40.0
-1430.0,6.0,134.0,4.0,-92.0,197.0,40.0,62.0
85.0,4.0,34.0,7.0,-160.0,176.0,32.0,46.0
1671.0,-53.0,-36.0,6.0,-131.0,139.0,39.0,74.0
2793.0,-77.0,-56.0,-23.0,-85.0,177.0,15.0,72.0
2987.0,-30.0,-62.0,-29.0,-36.0,177.0,17.0,64.0
2287.0,17.0,-67.0,0.0,58.0,140.0,40.0,116.0
1095.0,30.0,-76.0,-26.0,92.0,183.0,53.0,106.0
-365.0,19.0,-47.0,-46.0,92.0,188.0,34.0,106.0
-1633.0,28.0,-67.0,-31.0,26.0,172.0,21.0,112.0
-2010.0,58.0,-70.0,-46.0,-56.0,169.0,65.0,119.0
-1882.0,105.0,-68.0,-1.0,-93.0,191.0,40.0,119.0
-1772.0,128.0,-133.0,-5.0,-94.0,158.0,19.0,76.0
-1137.0,157.0,-220.0,-32.0,7.0,103.0,6.0,73.0
131.0,81.0,-324.0,-7.0,24.0,101.0,-22.0,69.0
1102.0,-10.0,-450.0,-30.0,-25.0,94.0,-8.0,35.0
1934.0,-15.0,-596.0,-18.0,-67.0,81.0,-17.0,41.0
2158.0,-35.0,-519.0,-2.0,-183.0,85.0,-23.0,47.0
1767.0,-36.0,-297.0,-36.0,-182.0,100.0,-27.0,55.0
1259.0,-34.0,-79.0,-32.0,-1.0,86.0,-10.0,83.0
576.0,26.0,198.0,-44.0,180.0,68.0,-21.0,117.0
-125.0,60.0,349.0,-76.0,216.0,29.0,-26.0,111.0
-767.0,15.0,450.0,-77.0,33.0,22.0,-22.0,60.0
-1170.0,4.0,459.0,-61.0,-190.0,9.0,-25.0,53.0
-1560.0,-14.0,474.0,-20.0,-192.0,-8.0,-25.0,64.0
-1353.0,19.0,496.0,-9.0,-60.0,-7.0,-36.0,39.0
-719.0,45.0,419.0,4.0,63.0,-14.0,-22.0,39.0
-312.0,4.0,284.0,36.0,76.0,-18.0,-59.0,49.0
40.0,21.0,72.0,38.0,-43.0,-49.0,-35.0,43.0
90.0,3.0,79.0,31.0,-130.0,-67.0,-34.0,41.0
118.0,-26.0,126.0,28.0,-215.0,-108.0,-11.0,-23.0
44.0,3.0,166.0,16.0,-274.0,-113.0,19.0,-16.0
-41.0,-13.0,219.0,10.0,-267.0,-97.0,0.0,13.0
-49.0,-19.0,111.0,-15.0,-145.0,-109.0,31.0,3.0
-58.0,-31.0,-107.0,-64.0,-107.0,-137.0,16.0,46.0
54.0,18.0,-350.0,-80.0,-187.0,-145.0,22.0,30.0
160.0,83.0,-467.0,-67.0,-164.0,-149.0,18.0,41.0
160.0,74.0,-389.0,-51.0,-121.0,-141.0,20.0,47.0
28.0,40.0,-179.0,-12.0,35.0,-156.0,25.0,-7.0
33.0,9.0,-192.0,-1.0,101.0,-213.0,10.0,-6.0
7.0,-22.0,-145.0,7.0,-40.0,-277.0,48.0,-23.0
-51.0,-39.0,-14.0,10.0,-46.0,-282.0,27.0,-23.0
-67.0,-22.0,-110.0,-6.0,-44.0,-232.0,5.0,-11.0
-81.0,-34.0,-124.0,-5.0,-8.0,-271.0,22.0,-23.0
-61.0,-26.0,-20.0,-3.0,42.0,-345.0,35.0,-18.0
-70.0,-14.0,61.0,-56.0,25.0,-354.0,29.0,-13.0
-49.0,1.0,59.0,-84.0,69.0,-246.0,14.0,-15.0
-74.0,27.0,11.0,-78.0,19.0,-208.0,36.0,2.0
-53.0,20.0,-336.0,-75.0,-13.0,-198.0,64.0,8.0
-19.0,2.0,-921.0,-48.0,-25.0,-148.0,48.0,17.0
-18.0,1.0,-995.0,-44.0,-25.0,-151.0,45.0,14.0
-13.0,14.0,-503.0,2.0,36.0,-152.0,65.0,20.0
-23.0,0.0,-71.0,-2.0,64.0,-122.0,59.0,34.0
1.0,-2.0,230.0,-18.0,60.0,-78.0,61.0,-5.0
21.0,-3.0,244.0,-8.0,-12.0,-76.0,55.0,19.0
20.0,4.0,328.0,15.0,-59.0,-33.0,37.0,51.0
21.0,-4.0,450.0,33.0,-79.0,-30.0,45.0,20.0
-23.0,-28.0,498.0,44.0,-19.0,-12.0,36.0,-7.0
-39.0,-28.0,793.0,49.0,47.0,8.0,15.0,17.0
9.0,-21.0,866.0,16.0,82.0,14.0,15.0,3.0
-28.0,-35.0,793.0,30.0,102.0,40.0,2.0,-17.0
-52.0,-34.0,360.0,16.0,80.0,24.0,25.0,2.0
-41.0,-52.0,101.0,-19.0,81.0,62.0,23.0,-2.0
-30.0,-50.0,219.0,-16.0,87.0,82.0,19.0,-6.0
-39.0,-30.0,195.0,-2.0,128.0,102.0,31.0,-6.0
-108.0,-11.0,125.0,6.0,155.0,129.0,26.0,5.0
-261.0,12.0,-48.0,-2.0,113.0,112.0,19.0,-2.0
-318.0,-5.0,-22.0,-23.0,88.0,158.0,10.0,20.0
-161.0,9.0,50.0,-19.0,87.0,174.0,35.0,-3.0
20.0,27.0,-56.0,-16.0,154.0,197.0,30.0,-50.0
201.0,41.0,-212.0,0.0,180.0,223.0,22.0,25.0
316.0,74.0,-429.0,-10.0,143.0,226.0,33.0,23.0
368.0,95.0,-580.0,-35.0,102.0,246.0,32.0,14.0
306.0,111.0,-625.0,-39.0,86.0,250.0,29.0,23.0
74.0,58.0,-285.0,-44.0,151.0,284.0,37.0,14.0
1.0,0.0,81.0,-32.0,212.0,276.0,29.0,9.0
187.0,16.0,219.0,-54.0,247.0,207.0,2.0,-12.0
11.0,-34.0,321.0,-32.0,282.0,237.0,19.0,-13.0
-589.0,-57.0,150.0,-22.0,267.0,296.0,42.0,-12.0
-1196.0,-114.0,-8.0,-9.0,265.0,303.0,31.0,1.0
-1170.0,-196.0,-66.0,-2.0,261.0,296.0,9.0,-38.0
-209.0,-113.0,-300.0,-34.0,208.0,311.0,13.0,-15.0
590.0,-46.0,-1143.0,1.0,190.0,290.0,24.0,13.0
1297.0,-66.0,-2007.0,16.0,150.0,248.0,9.0,6.0
1637.0,-98.0,-1667.0,-38.0,131.0,189.0,13.0,16.0
1293.0,-70.0,-473.0,-34.0,105.0,171.0,37.0,16.0
668.0,-26.0,779.0,10.0,116.0,194.0,50.0,31.0
-242.0,-2.0,1756.0,-20.0,129.0,155.0,53.0,22.0
-554.0,43.0,2030.0,-8.0,75.0,205.0,51.0,-7.0
-331.0,117.0,1639.0,10.0,48.0,256.0,85.0,29.0
-181.0,189.0,988.0,-13.0,68.0,309.0,74.0,69.0
-221.0,228.0,476.0,10.0,52.0,346.0,86.0,49.0
-254.0,211.0,253.0,33.0,9.0,220.0,73.0,24.0
-261.0,160.0,-3.0,42.0,12.0,115.0,39.0,19.0
-254.0,145.0,-315.0,50.0,-24.0,66.0,50.0,20.0
-126.0,152.0,-515.0,40.0,-36.0,-14.0,4.0,3.0
-195.0,110.0,-490.0,20.0,-45.0,-12.0,30.0,1.0
-157.0,78.0,-320.0,12.0,-86.0,-5.0,64.0,22.0
-124.0,70.0,-269.0,6.0,-55.0,-51.0,53.0,23.0
-128.0,-3.0,-292.0,18.0,-68.0,-89.0,46.0,21.0
-90.0,-16.0,-275.0,1.0,-66.0,-92.0,37.0,-3.0
-85.0,-47.0,-211.0,-4.0,-59.0,-104.0,41.0,14.0
-120.0,-94.0,-135.0,12.0,-93.0,-122.0,25.0,18.0
-132.0,-91.0,-185.0,7.0,-98.0,-127.0,27.0,-5.0
-60.0,-83.0,-312.0,-31.0,-99.0,-157.0,23.0,-21.0
-42.0,-56.0,-479.0,-50.0,-95.0,-134.0,53.0,-23.0
-251.0,-78.0,-376.0,-52.0,-72.0,-82.0,21.0,-6.0
-649.0,-91.0,-187.0,-92.0,-61.0,-51.0,-11.0,2.0
-544.0,-112.0,-84.0,-112.0,-30.0,-53.0,18.0,21.0
-124.0,-102.0,147.0,-75.0,27.0,-101.0,21.0,22.0
273.0,-66.0,175.0,-86.0,30.0,-106.0,38.0,30.0
725.0,-35.0,199.0,-70.0,32.0,-98.0,39.0,23.0
855.0,-39.0,142.0,-71.0,33.0,-56.0,36.0,38.0
762.0,-79.0,95.0,-78.0,67.0,-75.0,37.0,40.0
443.0,-44.0,107.0,-59.0,93.0,-69.0,39.0,96.0
139.0,-38.0,43.0,-53.0,119.0,-43.0,38.0,156.0
-47.0,-31.0,30.0,-8.0,144.0,-42.0,4.0,130.0
-124.0,-32.0,-82.0,-31.0,125.0,-10.0,7.0,129.0
-93.0,-29.0,-132.0,-50.0,175.0,-12.0,18.0,119.0
-152.0,-32.0,-154.0,-17.0,182.0,-4.0,6.0,60.0
-167.0,-20.0,-144.0,-23.0,202.0,-14.0,14.0,-7.0
-169.0,21.0,-128.0,-19.0,224.0,-18.0,21.0,-148.0
-166.0,20.0,-60.0,-28.0,184.0,-50.0,8.0,-358.0
-98.0,51.0,10.0,-14.0,169.0,-45.0,0.0,-354.0
-64.0,32.0,30.0,12.0,169.0,-41.0,17.0,-90.0
-144.0,-8.0,40.0,0.0,162.0,-77.0,32.0,10.0
-156.0,-30.0,-1.0,-6.0,167.0,-53.0,37.0,-17.0
-99.0,-19.0,25.0,7.0,224.0,-39.0,30.0,38.0
-255.0,28.0,53.0,40.0,241.0,-8.0,54.0,40.0
-445.0,31.0,68.0,35.0,273.0,2.0,61.0,81.0
-649.0,37.0,72.0,19.0,282.0,10.0,85.0,72.0
-830.0,57.0,99.0,31.0,282.0,37.0,85.0,58.0
-361.0,57.0,77.0,10.0,249.0,-22.0,45.0,50.0
208.0,22.0,10.0,0.0,224.0,-52.0,31.0,27.0
660.0,-10.0,20.0,-28.0,245.0,-75.0,6.0,39.0
1130.0,13.0,40.0,-7.0,245.0,-86.0,30.0,26.0
1181.0,-12.0,65.0,-21.0,242.0,-54.0,15.0,25.0
1059.0,-38.0,85.0,-26.0,237.0,-94.0,27.0,24.0
627.0,-32.0,76.0,-18.0,224.0,-88.0,13.0,38.0
208.0,-21.0,72.0,-45.0,188.0,-110.0,-9.0,67.0
-100.0,-6.0,93.0,-22.0,190.0,-117.0,12.0,69.0
-248.0,-16.0,35.0,-28.0,202.0,-113.0,-18.0,42.0
-381.0,6.0,-39.0,-54.0,217.0,-101.0,16.0,47.0
-483.0,32.0,-79.0,-71.0,241.0,-45.0,18.0,45.0
-351.0,55.0,-97.0,-48.0,215.0,-50.0,13.0,36.0
-382.0,42.0,-52.0,-42.0,210.0,-49.0,19.0,41.0
-311.0,34.0,-17.0,-9.0,193.0,-35.0,22.0,33.0
-279.0,46.0,57.0,27.0,158.0,-74.0,14.0,24.0
-220.0,20.0,195.0,43.0,154.0,-97.0,44.0,31.0
-95.0,15.0,280.0,51.0,171.0,-86.0,49.0,47.0
-85.0,38.0,376.0,22.0,178.0,-195.0,26.0,56.0
-51.0,16.0,238.0,-41.0,154.0,-228.0,65.0,47.0
-42.0,-1.0,-129.0,-114.0,147.0,-169.0,66.0,-6.0
-4.0,30.0,-381.0,-83.0,100.0,-100.0,54.0,6.0
-24.0,18.0,-413.0,-35.0,78.0,-65.0,42.0,21.0
-3.0,6.0,-209.0,11.0,74.0,-93.0,21.0,-20.0
-7.0,7.0,52.0,45.0,12.0,-27.0,24.0,-32.0
-40.0,16.0,166.0,85.0,-17.0,-12.0,37.0,-27.0
-131.0,17.0,175.0,50.0,-61.0,-71.0,15.0,-29.0
-190.0,-14.0,149.0,20.0,-64.0,-138.0,37.0,-8.0
-19.0,-8.0,71.0,23.0,-43.0,-145.0,32.0,16.0
125.0,1.0,92.0,42.0,-71.0,7.0,13.0,23.0
212.0,29.0,140.0,51.0,-146.0,13.0,13.0,5.0
262.0,30.0,79.0,5.0,-175.0,-47.0,-11.0,-13.0
230.0,13.0,36.0,-32.0,-95.0,-91.0,-7.0,-8.0
187.0,13.0,31.0,-91.0,-125.0,-144.0,-6.0,-39.0
135.0,25.0,-104.0,-106.0,-201.0,-44.0,-19.0,-35.0
70.0,37.0,-373.0,-106.0,-374.0,-18.0,-52.0,-37.0
42.0,7.0,-358.0,-65.0,-382.0,30.0,-32.0,-9.0
-15.0,19.0,-214.0,-48.0,-270.0,148.0,-10.0,33.0
-59.0,36.0,-150.0,-42.0,-263.0,175.0,0.0,2.0
-296.0,-9.0,17.0,18.0,-177.0,170.0,-3.0,-1.0
-631.0,-59.0,60.0,20.0,-118.0,72.0,-17.0,26.0
-1155.0,-68.0,178.0,55.0,-152.0,42.0,3.0,39.0
-1457.0,-89.0,193.0,22.0,-146.0,98.0,-6.0,31.0
-1019.0,-108.0,152.0,-15.0,-29.0,38.0,-17.0,41.0
-361.0,-131.0,38.0,-24.0,-20.0,6.0,-28.0,27.0
888.0,-111.0,-26.0,-25.0,-38.0,70.0,-19.0,14.0
1937.0,-54.0,101.0,-8.0,22.0,71.0,-10.0,-1.0
2325.0,-42.0,24.0,-19.0,72.0,76.0,-12.0,12.0
2092.0,9.0,-255.0,13.0,62.0,138.0,12.0,47.0
1246.0,40.0,-631.0,-34.0,-9.0,101.0,2.0,32.0
446.0,47.0,-494.0,-26.0,-4.0,85.0,9.0,31.0
-321.0,82.0,-43.0,6.0,-1.0,90.0,13.0,43.0
-632.0,141.0,419.0,-8.0,-111.0,86.0,-28.0,41.0
-844.0,211.0,716.0,-23.0,-191.0,105.0,-11.0,32.0
-844.0,215.0,741.0,-20.0,-254.0,69.0,-1.0,30.0
-712.0,216.0,671.0,-17.0,-273.0,107.0,-6.0,47.0
-706.0,217.0,436.0,-9.0,-168.0,191.0,30.0,58.0
-489.0,152.0,311.0,-15.0,-78.0,124.0,28.0,47.0
-346.0,84.0,139.0,-10.0,-74.0,88.0,33.0,35.0
-162.0,45.0,-19.0,19.0,-157.0,123.0,48.0,43.0
-107.0,33.0,-122.0,12.0,-254.0,67.0,53.0,70.0
-71.0,33.0,-247.0,29.0,-364.0,89.0,10.0,69.0
-17.0,-19.0,-157.0,2.0,-441.0,65.0,6.0,64.0
-35.0,-55.0,1.0,-9.0,-454.0,30.0,-1.0,25.0
25.0,-65.0,-66.0,-2.0,-443.0,25.0,-40.0,-30.0
-13.0,-81.0,-277.0,-22.0,-372.0,21.0,-23.0,-29.0
7.0,-63.0,-373.0,-3.0,-311.0,39.0,-37.0,-37.0
9.0,-66.0,-315.0,-32.0,-295.0,14.0,-33.0,-43.0
-6.0,-80.0,-643.0,-46.0,-324.0,15.0,-41.0,-34.0
21.0,-89.0,-709.0,-23.0,-295.0,16.0,-49.0,-15.0
22.0,-70.0,-237.0,-31.0,-267.0,73.0,-38.0,-10.0
34.0,-82.0,-450.0,-32.0,-256.0,90.0,-41.0,-11.0
47.0,-69.0,-257.0,-48.0,-229.0,90.0,-34.0,7.0
68.0,-55.0,252.0,-16.0,-263.0,81.0,-27.0,-6.0
60.0,-67.0,279.0,-6.0,-287.0,75.0,-45.0,8.0
8.0,-28.0,676.0,-19.0,-291.0,94.0,-24.0,33.0
-112.0,-58.0,931.0,-48.0,-242.0,54.0,-28.0,10.0
-129.0,-58.0,923.0,-74.0,-181.0,24.0,-59.0,13.0
-3.0,-22.0,980.0,-44.0,-102.0,30.0,-26.0,16.0
27.0,-29.0,630.0,-37.0,-93.0,45.0,16.0,-5.0
12.0,-33.0,82.0,-50.0,-130.0,42.0,58.0,-20.0
44.0,-5.0,-282.0,-53.0,-90.0,39.0,71.0,-7.0
147.0,30.0,-320.0,-12.0,-46.0,53.0,102.0,9.0
20.0,17.0,-343.0,-19.0,-8.0,68.0,112.0,12.0
-388.0,10.0,-479.0,-21.0,-8.0,44.0,107.0,-14.0
-510.0,-4.0,-401.0,26.0,-25.0,37.0,94.0,-3.0
-215.0,8.0,-237.0,2.0,-46.0,132.0,70.0,1.0
162.0,17.0,-204.0,-11.0,-18.0,172.0,79.0,-18.0
530.0,0.0,-223.0,-7.0,27.0,99.0,66.0,-6.0
733.0,13.0,-159.0,-5.0,10.0,203.0,45.0,24.0
705.0,11.0,-129.0,-7.0,35.0,90.0,48.0,47.0
508.0,4.0,-137.0,-27.0,41.0,-33.0,77.0,33.0
204.0,11.0,-162.0,-35.0,28.0,99.0,77.0,56.0
-72.0,13.0,-251.0,-19.0,70.0,138.0,81.0,60.0
-163.0,26.0,-281.0,-18.0,74.0,228.0,72.0,52.0
-113.0,14.0,-239.0,6.0,69.0,178.0,53.0,34.0
-113.0,34.0,-129.0,23.0,97.0,203.0,76.0,30.0
-162.0,57.0,-57.0,9.0,63.0,180.0,63.0,56.0
-172.0,46.0,-46.0,30.0,49.0,143.0,53.0,63.0
-228.0,37.0,4.0,13.0,64.0,160.0,41.0,50.0
-203.0,9.0,27.0,-1.0,63.0,42.0,44.0,29.0
-160.0,14.0,38.0,-2.0,69.0,61.0,56.0,41.0
-189.0,13.0,42.0,-5.0,75.0,93.0,20.0,44.0
-185.0,3.0,23.0,-1.0,106.0,87.0,6.0,34.0
-146.0,21.0,19.0,-16.0,100.0,65.0,10.0,15.0
-102.0,24.0,44.0,-5.0,102.0,31.0,9.0,37.0
-94.0,38.0,34.0,-5.0,110.0,50.0,22.0,3.0
-90.0,34.0,22.0,2.0,100.0,74.0,30.0,-17.0
-122.0,17.0,41.0,9.0,96.0,74.0,24.0,43.0
-85.0,-30.0,23.0,-2.0,114.0,76.0,24.0,79.0
-29.0,-10.0,38.0,4.0,182.0,99.0,23.0,82.0
53.0,3.0,79.0,2.0,203.0,107.0,19.0,47.0
192.0,-23.0,67.0,-15.0,193.0,94.0,9.0,32.0
225.0,-15.0,67.0,-20.0,207.0,105.0,14.0,18.0
45.0,-5.0,46.0,-29.0,229.0,142.0,30.0,43.0
-82.0,-1.0,48.0,-24.0,219.0,172.0,45.0,77.0
-19.0,7.0,85.0,-15.0,241.0,143.0,71.0,122.0
34.0,22.0,95.0,-2.0,363.0,160.0,58.0,148.0
161.0,4.0,92.0,-5.0,400.0,203.0,97.0,163.0
137.0,9.0,89.0,-26.0,408.0,184.0,98.0,176.0
128.0,-42.0,84.0,-8.0,440.0,206.0,46.0,116.0
86.0,-51.0,46.0,-17.0,418.0,183.0,42.0,74.0
-54.0,-34.0,24.0,-48.0,406.0,185.0,25.0,-29.0
-105.0,-29.0,2.0,-44.0,385.0,196.0,5.0,-216.0
-183.0,8.0,7.0,-30.0,367.0,209.0,42.0,-366.0
-189.0,5.0,23.0,-8.0,423.0,235.0,42.0,-98.0
-191.0,77.0,-26.0,-14.0,432.0,193.0,14.0,87.0
-101.0,115.0,-61.0,-26.0,415.0,196.0,41.0,-13.0
43.0,99.0,-60.0,-36.0,403.0,179.0,16.0,125.0
166.0,86.0,-89.0,-38.0,379.0,162.0,4.0,31.0
-110.0,-5.0,-121.0,-23.0,361.0,137.0,23.0,25.0
-432.0,-151.0,-141.0,-15.0,328.0,68.0,22.0,55.0
-44.0,-247.0,-93.0,-9.0,338.0,57.0,45.0,50.0
139.0,-82.0,-31.0,22.0,314.0,62.0,35.0,70.0
178.0,-47.0,-41.0,-5.0,310.0,53.0,18.0,20.0
430.0,-94.0,-59.0,-34.0,302.0,47.0,30.0,72.0
365.0,-92.0,-242.0,-45.0,281.0,30.0,43.0,77.0
269.0,-83.0,-384.0,-62.0,215.0,-6.0,50.0,108.0
97.0,-23.0,-281.0,-74.0,201.0,-26.0,30.0,95.0
-101.0,-26.0,-88.0,-51.0,224.0,-19.0,33.0,102.0
-238.0,-15.0,211.0,9.0,202.0,-10.0,44.0,106.0
-327.0,-26.0,378.0,27.0,267.0,1.0,39.0,144.0
-372.0,26.0,374.0,27.0,235.0,-17.0,68.0,142.0
-384.0,87.0,317.0,-2.0,159.0,-50.0,42.0,98.0
-197.0,162.0,238.0,-4.0,106.0,-97.0,23.0,100.0
-40.0,181.0,252.0,25.0,99.0,-118.0,59.0,71.0
31.0,150.0,374.0,61.0,136.0,-125.0,19.0,69.0
35.0,146.0,450.0,77.0,163.0,-130.0,22.0,63.0
122.0,103.0,306.0,38.0,196.0,-122.0,32.0,43.0
162.0,72.0,142.0,-4.0,153.0,-129.0,16.0,31.0
112.0,28.0,-66.0,-37.0,89.0,-101.0,21.0,60.0
199.0,33.0,-425.0,-82.0,43.0,-142.0,15.0,53.0
129.0,-10.0,-403.0,-85.0,36.0,-162.0,5.0,46.0
101.0,-45.0,-304.0,-55.0,93.0,-167.0,19.0,28.0
52.0,-53.0,-348.0,-39.0,75.0,-196.0,33.0,14.0
-303.0,-66.0,-389.0,-27.0,15.0,-167.0,7.0,9.0
-255.0,-26.0,-688.0,-13.0,11.0,-175.0,7.0,13.0
277.0,-26.0,-768.0,-30.0,0.0,-161.0,21.0,21.0
452.0,-12.0,-364.0,-56.0,-12.0,-151.0,28.0,25.0
530.0,-4.0,172.0,7.0,18.0,-169.0,10.0,17.0
382.0,-16.0,567.0,25.0,53.0,-207.0,-7.0,-23.0
67.0,-16.0,754.0,18.0,65.0,-260.0,-16.0,-47.0
-125.0,-24.0,741.0,-10.0,47.0,-240.0,-33.0,-59.0
-307.0,-23.0,427.0,-65.0,-17.0,-234.0,-32.0,-44.0
-437.0,11.0,142.0,-67.0,-29.0,-254.0,-75.0,-86.0
-518.0,6.0,-25.0,-79.0,-5.0,-240.0,-41.0,-101.0
-396.0,44.0,-102.0,-46.0,-25.0,-279.0,-14.0,-70.0
-341.0,91.0,-24.0,-10.0,-93.0,-305.0,32.0,-62.0
-288.0,117.0,-80.0,-3.0,-135.0,-255.0,46.0,-43.0
-238.0,152.0,-170.0,-1.0,-136.0,-198.0,-7.0,-36.0
-212.0,106.0,-190.0,-7.0,-113.0,-159.0,-8.0,-8.0
6.0,58.0,-133.0,28.0,-157.0,-129.0,5.0,-30.0
192.0,5.0,-103.0,38.0,-263.0,-88.0,4.0,-68.0
192.0,-24.0,-99.0,28.0,-286.0,-90.0,0.0,-62.0
149.0,-14.0,-82.0,9.0,-364.0,-104.0,5.0,-67.0
151.0,-63.0,-63.0,-34.0,-421.0,-102.0,-14.0,-124.0
81.0,-94.0,0.0,-20.0,-364.0,-81.0,1.0,-136.0
56.0,-30.0,0.0,0.0,-315.0,-50.0,-7.0,-78.0
36.0,-24.0,-55.0,-44.0,-211.0,-42.0,-8.0,-39.0
24.0,-23.0,-52.0,-59.0,-215.0,-63.0,35.0,-62.0
26.0,18.0,0.0,-39.0,-285.0,-142.0,27.0,-40.0
-47.0,39.0,16.0,-5.0,-295.0,-94.0,61.0,-17.0
-79.0,94.0,67.0,-11.0,-285.0,-19.0,71.0,-18.0
-79.0,74.0,101.0,-45.0,-259.0,-88.0,38.0,8.0
-88.0,58.0,30.0,-37.0,-268.0,-23.0,39.0,30.0
-83.0,55.0,-11.0,-22.0,-328.0,21.0,67.0,35.0
2.0,47.0,-4.0,-31.0,-395.0,29.0,48.0,43.0
27.0,-10.0,0.0,-48.0,-356.0,63.0,-22.0,165.0
24.0,-175.0,11.0,-21.0,-311.0,40.0,-27.0,160.0
52.0,-244.0,13.0,13.0,-291.0,107.0,4.0,135.0
47.0,-236.0,-18.0,-15.0,-225.0,102.0,35.0,149.0
60.0,-96.0,-55.0,-14.0,-180.0,143.0,58.0,97.0
77.0,1.0,-70.0,3.0,-147.0,188.0,58.0,8.0
86.0,-74.0,-33.0,-2.0,-201.0,177.0,38.0,-58.0
74.0,-50.0,-41.0,-11.0,-228.0,168.0,-12.0,-156.0
68.0,-83.0,-74.0,-6.0,-284.0,126.0,8.0,-366.0
39.0,-74.0,-82.0,-1.0,-299.0,133.0,58.0,-275.0
44.0,-18.0,-21.0,5.0,-267.0,127.0,53.0,58.0
62.0,10.0,6.0,29.0,-248.0,160.0,79.0,75.0
46.0,51.0,3.0,3.0,-234.0,159.0,53.0,66.0
32.0,51.0,-36.0,1.0,-213.0,123.0,66.0,86.0
27.0,56.0,-41.0,-11.0,-149.0,118.0,112.0,37.0
33.0,56.0,36.0,-13.0,-109.0,166.0,97.0,74.0
15.0,70.0,-20.0,-8.0,-92.0,271.0,76.0,59.0
39.0,50.0,-49.0,-1.0,-73.0,207.0,65.0,98.0
63.0,55.0,-82.0,20.0,-39.0,155.0,21.0,93.0
40.0,28.0,-76.0,-3.0,13.0,185.0,2.0,86.0
30.0,-11.0,60.0,10.0,5.0,109.0,39.0,111.0
45.0,9.0,107.0,10.0,-42.0,105.0,5.0,105.0
-5.0,29.0,85.0,-20.0,-37.0,152.0,21.0,104.0
-9.0,23.0,39.0,-33.0,-35.0,154.0,10.0,59.0
21.0,13.0,11.0,-89.0,-12.0,126.0,-54.0,47.0
-14.0,15.0,-104.0,-109.0,-50.0,118.0,-60.0,66.0
-24.0,20.0,-177.0,-71.0,-46.0,138.0,-54.0,70.0
-18.0,11.0,-220.0,-23.0,21.0,136.0,-38.0,66.0
-1.0,28.0,-160.0,12.0,12.0,151.0,-41.0,87.0
4.0,24.0,-46.0,15.0,24.0,158.0,-62.0,90.0
14.0,23.0,-18.0,-8.0,-8.0,185.0,-65.0,123.0
-17.0,45.0,81.0,23.0,-7.0,180.0,-3.0,143.0
-101.0,28.0,24.0,8.0,27.0,118.0,29.0,120.0
-227.0,47.0,8.0,-30.0,69.0,79.0,29.0,104.0
-180.0,40.0,18.0,-33.0,131.0,34.0,59.0,96.0
4.0,31.0,-16.0,-9.0,135.0,9.0,38.0,77.0
-84.0,24.0,-66.0,-3.0,182.0,65.0,23.0,56.0
5.0,-1.0,-95.0,-25.0,180.0,80.0,13.0,51.0
241.0,-4.0,0.0,-18.0,142.0,8.0,2.0,14.0
281.0,-10.0,23.0,-37.0,134.0,-7.0,12.0,3.0
263.0,-7.0,23.0,-33.0,142.0,-98.0,-6.0,-5.0
127.0,-34.0,-50.0,-38.0,227.0,-98.0,-8.0,-15.0
23.0,-44.0,-304.0,-38.0,325.0,7.0,14.0,1.0
-36.0,-30.0,-477.0,-13.0,351.0,17.0,37.0,32.0
2.0,12.0,-285.0,-14.0,302.0,57.0,32.0,47.0
105.0,-5.0,-18.0,-30.0,175.0,78.0,51.0,19.0
-60.0,-14.0,228.0,-28.0,93.0,203.0,40.0,23.0
-453.0,-3.0,429.0,-15.0,138.0,321.0,58.0,63.0
-873.0,-16.0,446.0,-15.0,202.0,244.0,81.0,41.0
-1105.0,37.0,402.0,4.0,219.0,176.0,67.0,33.0
-1016.0,44.0,330.0,0.0,216.0,180.0,95.0,65.0
-589.0,28.0,258.0,15.0,216.0,151.0,82.0,31.0
-6.0,-1.0,215.0,6.0,237.0,119.0,88.0,21.0
457.0,-12.0,106.0,-26.0,212.0,91.0,55.0,-12.0
855.0,-14.0,-53.0,-6.0,122.0,88.0,44.0,-27.0
1000.0,-30.0,-171.0,-16.0,100.0,86.0,50.0,-25.0
888.0,-47.0,-290.0,3.0,98.0,126.0,48.0,-44.0
580.0,-25.0,-434.0,-5.0,122.0,158.0,53.0,-55.0
408.0,3.0,-383.0,-44.0,171.0,126.0,25.0,-51.0
408.0,9.0,-125.0,-19.0,198.0,87.0,27.0,-50.0
342.0,46.0,-21.0,-57.0,190.0,29.0,24.0,-59.0
208.0,-9.0,72.0,-102.0,194.0,17.0,2.0,-66.0
-48.0,23.0,299.0,-81.0,217.0,26.0,-6.0,-68.0
-258.0,50.0,368.0,-66.0,206.0,27.0,2.0,-51.0
-582.0,84.0,269.0,-52.0,235.0,18.0,-12.0,-44.0
-620.0,120.0,147.0,-27.0,264.0,79.0,31.0,16.0
-565.0,70.0,111.0,7.0,277.0,158.0,53.0,56.0
-361.0,71.0,69.0,7.0,261.0,124.0,39.0,25.0
-169.0,42.0,15.0,6.0,241.0,111.0,16.0,3.0
-192.0,22.0,-66.0,22.0,275.0,130.0,28.0,-24.0
-153.0,8.0,-141.0,11.0,229.0,146.0,61.0,-104.0
-164.0,-11.0,-165.0,10.0,270.0,155.0,45.0,-121.0
-14.0,-13.0,-155.0,-1.0,285.0,189.0,50.0,-8.0
-16.0,-22.0,-112.0,-9.0,194.0,225.0,-6.0,35.0
-20.0,-32.0,-81.0,8.0,114.0,236.0,-21.0,15.0
-17.0,-49.0,-63.0,21.0,65.0,276.0,-24.0,27.0
-30.0,-30.0,-68.0,4.0,63.0,244.0,-23.0,35.0
-17.0,-59.0,-123.0,-16.0,113.0,188.0,7.0,22.0
25.0,-77.0,-128.0,3.0,168.0,167.0,33.0,8.0
47.0,-49.0,-103.0,-3.0,137.0,119.0,48.0,-26.0
-52.0,-23.0,-111.0,-15.0,109.0,22.0,43.0,-86.0
-183.0,-15.0,-111.0,-11.0,68.0,-108.0,37.0,-73.0
-255.0,-44.0,-125.0,-21.0,26.0,-224.0,22.0,-17.0
-131.0,-29.0,-97.0,-11.0,19.0,-314.0,61.0,-27.0
12.0,-4.0,14.0,10.0,14.0,-308.0,66.0,-5.0
220.0,11.0,42.0,-38.0,14.0,-285.0,46.0,6.0
302.0,9.0,79.0,-50.0,55.0,-354.0,44.0,10.0
371.0,29.0,140.0,-1.0,96.0,-354.0,73.0,34.0
390.0,-8.0,259.0,25.0,73.0,-211.0,68.0,33.0
269.0,-17.0,293.0,29.0,72.0,-42.0,66.0,21.0
192.0,10.0,246.0,18.0,84.0,-20.0,79.0,3.0
108.0,-24.0,218.0,27.0,122.0,-35.0,18.0,8.0
89.0,-24.0,92.0,-40.0,180.0,-98.0,42.0,18.0
17.0,-28.0,100.0,-26.0,196.0,-125.0,62.0,36.0
-62.0,15.0,77.0,6.0,182.0,-37.0,41.0,28.0
-100.0,40.0,50.0,-29.0,136.0,-48.0,37.0,1.0
-93.0,0.0,41.0,-44.0,105.0,-27.0,27.0,6.0
-143.0,-7.0,-9.0,-25.0,104.0,37.0,12.0,25.0
-166.0,-2.0,12.0,5.0,125.0,26.0,23.0,32.0
-114.0,5.0,-103.0,-17.0,128.0,-35.0,32.0,25.0
-114.0,6.0,-206.0,-57.0,101.0,-71.0,-7.0,25.0
-127.0,17.0,-140.0,-48.0,89.0,-68.0,-8.0,8.0
-170.0,49.0,-40.0,-29.0,60.0,-112.0,-26.0,0.0
-226.0,57.0,-29.0,-22.0,68.0,-159.0,-19.0,14.0
-192.0,17.0,-9.0,-1.0,94.0,-239.0,-15.0,9.0
-88.0,5.0,23.0,-14.0,102.0,-219.0,-42.0,32.0
-2.0,16.0,108.0,-31.0,119.0,-150.0,-2.0,23.0
86.0,6.0,64.0,-41.0,76.0,-125.0,23.0,24.0
139.0,12.0,-137.0,-46.0,72.0,-135.0,17.0,34.0
36.0,2.0,-181.0,-55.0,97.0,-194.0,12.0,12.0
-119.0,-8.0,-175.0,-41.0,112.0,-124.0,40.0,-13.0
-48.0,12.0,-157.0,-1.0,92.0,-115.0,65.0,-36.0
89.0,21.0,-73.0,20.0,43.0,-140.0,45.0,-36.0
178.0,12.0,-12.0,11.0,34.0,-88.0,-8.0,-5.0
249.0,15.0,1.0,-16.0,17.0,-137.0,-8.0,14.0
204.0,13.0,-7.0,3.0,-7.0,-151.0,5.0,-1.0
89.0,15.0,13.0,-24.0,-59.0,-123.0,-8.0,-23.0
-15.0,40.0,63.0,-11.0,-84.0,-132.0,18.0,-17.0
-24.0,10.0,89.0,39.0,-116.0,-92.0,47.0,16.0
-9.0,8.0,109.0,16.0,-118.0,-106.0,19.0,14.0
18.0,7.0,-53.0,10.0,-44.0,-62.0,10.0,43.0
26.0,0.0,-469.0,3.0,-2.0,18.0,59.0,125.0
4.0,9.0,-673.0,18.0,41.0,-16.0,44.0,136.0
32.0,-3.0,-244.0,16.0,-1.0,5.0,68.0,148.0
80.0,25.0,179.0,5.0,-8.0,-6.0,113.0,176.0
137.0,2.0,461.0,-4.0,5.0,-63.0,78.0,145.0
-56.0,2.0,523.0,-32.0,-20.0,-30.0,30.0,83.0
-413.0,17.0,349.0,-61.0,-55.0,-141.0,9.0,1.0
-448.0,-12.0,241.0,-20.0,-102.0,-219.0,28.0,-185.0
-73.0,2.0,111.0,37.0,-76.0,-54.0,58.0,-355.0
277.0,12.0,149.0,18.0,-54.0,47.0,70.0,-168.0
363.0,22.0,-20.0,-22.0,-38.0,73.0,58.0,50.0
250.0,30.0,-62.0,-68.0,-36.0,58.0,53.0,49.0
37.0,40.0,-85.0,-18.0,-19.0,28.0,50.0,116.0
-114.0,11.0,-202.0,-6.0,-19.0,61.0,61.0,74.0
-303.0,-26.0,-101.0,-8.0,-47.0,80.0,29.0,49.0
-584.0,-10.0,-7.0,-2.0,-116.0,100.0,-6.0,44.0
-784.0,11.0,50.0,-29.0,-157.0,76.0,2.0,25.0
-604.0,-2.0,45.0,-6.0,-130.0,84.0,-7.0,51.0
-250.0,8.0,-70.0,-10.0,-111.0,135.0,0.0,38.0
128.0,17.0,-216.0,-34.0,-131.0,146.0,-15.0,35.0
477.0,-21.0,-211.0,-42.0,-172.0,111.0,-28.0,11.0
652.0,-19.0,-125.0,-10.0,-168.0,106.0,-24.0,16.0
790.0,-3.0,-50.0,-16.0,-147.0,95.0,-17.0,-13.0
543.0,-19.0,-49.0,-52.0,-145.0,105.0,-22.0,-6.0
228.0,-37.0,-69.0,-41.0,-174.0,90.0,-32.0,-1.0
11.0,-52.0,48.0,-9.0,-205.0,62.0,-33.0,16.0
-98.0,-45.0,84.0,-14.0,-202.0,105.0,-30.0,15.0
-53.0,-32.0,53.0,-60.0,-199.0,87.0,-8.0,-3.0
-140.0,-20.0,84.0,-48.0,-127.0,97.0,0.0,33.0
-162.0,-10.0,72.0,-5.0,-44.0,94.0,22.0,67.0
-172.0,-4.0,56.0,-10.0,-9.0,111.0,49.0,92.0
-205.0,-6.0,59.0,-48.0,-40.0,109.0,49.0,60.0
-144.0,-7.0,56.0,-34.0,-87.0,54.0,50.0,47.0
-56.0,-7.0,60.0,-18.0,-90.0,84.0,44.0,75.0
-209.0,-15.0,53.0,-38.0,-90.0,78.0,53.0,74.0
-669.0,-4.0,0.0,-25.0,-69.0,56.0,67.0,30.0
-730.0,12.0,-8.0,-12.0,-98.0,35.0,45.0,35.0
-341.0,27.0,-21.0,-59.0,-96.0,-19.0,47.0,38.0
90.0,6.0,-71.0,-38.0,-111.0,-54.0,50.0,21.0
618.0,26.0,-155.0,-39.0,-118.0,47.0,24.0,30.0
929.0,57.0,-501.0,-16.0,-56.0,163.0,53.0,27.0
920.0,40.0,-643.0,-2.0,-26.0,155.0,62.0,34.0
654.0,73.0,-233.0,-6.0,0.0,180.0,58.0,34.0
293.0,70.0,59.0,12.0,16.0,168.0,42.0,16.0
1.0,28.0,231.0,-60.0,-18.0,68.0,1.0,19.0
-128.0,26.0,398.0,-18.0,-35.0,17.0,25.0,35.0
-221.0,15.0,328.0,9.0,-28.0,22.0,13.0,37.0
-580.0,30.0,268.0,-12.0,-31.0,-13.0,-1.0,38.0
-740.0,38.0,183.0,-5.0,-42.0,4.0,8.0,33.0
-909.0,31.0,114.0,-30.0,-48.0,93.0,-8.0,14.0
-1394.0,26.0,82.0,-17.0,-52.0,73.0,-18.0,-10.0
-1195.0,40.0,114.0,16.0,-34.0,99.0,10.0,-30.0
-453.0,38.0,-36.0,31.0,-85.0,36.0,-2.0,-79.0
269.0,-22.0,-220.0,-17.0,-118.0,-48.0,-32.0,-72.0
784.0,-26.0,-143.0,-1.0,-113.0,-107.0,-31.0,-2.0
1189.0,-7.0,-90.0,24.0,-143.0,-129.0,-22.0,-22.0
1637.0,-48.0,-82.0,9.0,-98.0,-8.0,-15.0,-18.0
1429.0,-60.0,-85.0,27.0,-60.0,-54.0,2.0,9.0
1169.0,-19.0,-54.0,16.0,-20.0,-33.0,16.0,10.0
755.0,16.0,-28.0,7.0,-30.0,31.0,4.0,8.0
381.0,39.0,-70.0,16.0,-69.0,-2.0,11.0,-37.0
144.0,17.0,-78.0,-5.0,-65.0,-10.0,-11.0,-27.0
-277.0,41.0,31.0,31.0,-30.0,-3.0,1.0,-7.0
-677.0,53.0,69.0,33.0,29.0,-30.0,-20.0,-17.0
-1087.0,46.0,27.0,-15.0,77.0,-9.0,-28.0,5.0
-966.0,56.0,7.0,-21.0,121.0,83.0,-63.0,8.0
-744.0,9.0,2.0,12.0,61.0,18.0,-98.0,-5.0
-550.0,17.0,56.0,26.0,43.0,-32.0,-78.0,-10.0
-467.0,18.0,19.0,19.0,16.0,-136.0,-49.0,-9.0
-523.0,34.0,1.0,3.0,-31.0,-31.0,20.0,3.0
-274.0,44.0,36.0,16.0,-38.0,85.0,33.0,7.0
-108.0,29.0,41.0,28.0,-38.0,35.0,72.0,40.0
-28.0,40.0,24.0,42.0,52.0,73.0,86.0,46.0
135.0,67.0,-3.0,42.0,105.0,66.0,94.0,37.0
241.0,66.0,1.0,5.0,23.0,84.0,61.0,21.0
287.0,13.0,-12.0,-1.0,-93.0,16.0,12.0,8.0
82.0,-12.0,-25.0,-16.0,-69.0,8.0,37.0,2.0
-315.0,1.0,-82.0,-40.0,35.0,3.0,40.0,-19.0
-541.0,-25.0,-145.0,-60.0,60.0,9.0,36.0,-24.0
-314.0,-77.0,-129.0,-50.0,44.0,19.0,66.0,-10.0
92.0,-69.0,-90.0,-57.0,-30.0,51.0,71.0,5.0
447.0,-101.0,-66.0,-64.0,-111.0,86.0,45.0,-5.0
465.0,-118.0,-50.0,-53.0,-67.0,62.0,25.0,1.0
228.0,-102.0,-46.0,-74.0,-46.0,78.0,25.0,3.0
235.0,-128.0,-37.0,-86.0,18.0,30.0,6.0,12.0
139.0,-107.0,-9.0,-73.0,69.0,-2.0,4.0,5.0
-144.0,-79.0,83.0,-36.0,6.0,-20.0,16.0,-2.0
-303.0,-36.0,137.0,-66.0,-4.0,-11.0,10.0,29.0
4.0,-27.0,100.0,-47.0,-3.0,-81.0,5.0,36.0
378.0,-51.0,59.0,-59.0,-2.0,-144.0,-17.0,46.0
275.0,-31.0,56.0,-59.0,12.0,-130.0,19.0,59.0
34.0,-31.0,12.0,6.0,77.0,-216.0,32.0,90.0
-165.0,-7.0,-29.0,0.0,109.0,-204.0,32.0,90.0
-77.0,-3.0,-25.0,-14.0,109.0,-22.0,16.0,67.0
-274.0,-30.0,-66.0,-37.0,133.0,73.0,2.0,43.0
-372.0,-29.0,-48.0,-47.0,106.0,93.0,25.0,27.0
162.0,8.0,-66.0,-8.0,123.0,123.0,36.0,61.0
660.0,15.0,-92.0,-6.0,165.0,53.0,42.0,128.0
900.0,-7.0,-67.0,-17.0,206.0,20.0,27.0,174.0
965.0,7.0,-27.0,10.0,237.0,15.0,41.0,210.0
692.0,-3.0,0.0,0.0,243.0,-5.0,45.0,182.0
157.0,-27.0,-70.0,-25.0,208.0,-21.0,44.0,135.0
-168.0,-35.0,-86.0,-30.0,171.0,11.0,33.0,141.0
-562.0,-14.0,-94.0,-46.0,146.0,39.0,27.0,108.0
-614.0,-4.0,-33.0,-26.0,147.0,53.0,61.0,50.0
-371.0,9.0,-9.0,-7.0,202.0,110.0,79.0,-186.0
-104.0,58.0,-5.0,-2.0,235.0,106.0,48.0,-378.0
214.0,67.0,17.0,-23.0,230.0,102.0,25.0,-98.0
-28.0,70.0,57.0,-26.0,190.0,24.0,-6.0,21.0
-377.0,58.0,139.0,-28.0,165.0,12.0,-41.0,-116.0
-620.0,41.0,199.0,-3.0,126.0,10.0,-16.0,-162.0
-710.0,48.0,200.0,-2.0,123.0,11.0,-6.0,-93.0
-730.0,16.0,120.0,-1.0,169.0,48.0,-21.0,145.0
-457.0,18.0,152.0,20.0,182.0,50.0,-12.0,31.0
31.0,32.0,77.0,-26.0,180.0,44.0,23.0,5.0
340.0,33.0,2.0,-35.0,182.0,-14.0,43.0,62.0
580.0,2.0,36.0,-37.0,165.0,-39.0,34.0,27.0
530.0,-3.0,-6.0,-21.0,180.0,-112.0,43.0,60.0
603.0,-18.0,-50.0,-18.0,202.0,-80.0,54.0,23.0
287.0,-44.0,-33.0,1.0,196.0,-46.0,80.0,82.0
-396.0,-5.0,36.0,11.0,190.0,2.0,114.0,56.0
-584.0,-2.0,37.0,3.0,168.0,67.0,109.0,51.0
-337.0,-14.0,22.0,4.0,188.0,4.0,119.0,39.0
-105.0,-24.0,-49.0,-10.0,208.0,20.0,106.0,27.0
137.0,10.0,-151.0,-20.0,188.0,2.0,79.0,12.0
285.0,46.0,-422.0,-36.0,177.0,14.0,93.0,16.0
395.0,86.0,-552.0,-10.0,137.0,54.0,110.0,34.0
447.0,77.0,-215.0,-51.0,112.0,30.0,105.0,7.0
181.0,52.0,-83.0,-87.0,116.0,-29.0,97.0,26.0
70.0,34.0,-10.0,-120.0,119.0,-55.0,102.0,14.0
-28.0,25.0,89.0,-95.0,83.0,-14.0,49.0,22.0
-163.0,51.0,234.0,-13.0,55.0,71.0,21.0,33.0
-242.0,25.0,382.0,6.0,70.0,116.0,40.0,38.0
-261.0,40.0,212.0,23.0,45.0,141.0,-8.0,33.0
-341.0,44.0,101.0,12.0,58.0,149.0,-20.0,14.0
-481.0,27.0,48.0,19.0,26.0,158.0,-14.0,25.0
-339.0,1.0,61.0,25.0,21.0,261.0,-16.0,42.0
-534.0,-1.0,59.0,40.0,72.0,250.0,46.0,68.0
-628.0,20.0,-90.0,44.0,67.0,77.0,22.0,59.0
-146.0,13.0,-154.0,18.0,89.0,-40.0,-6.0,16.0
144.0,-8.0,-138.0,2.0,87.0,4.0,5.0,7.0
395.0,-42.0,-255.0,-18.0,56.0,69.0,1.0,38.0
473.0,-16.0,-202.0,-13.0,40.0,72.0,28.0,28.0
464.0,-23.0,-47.0,-1.0,14.0,81.0,1.0,3.0
538.0,-37.0,17.0,7.0,1.0,115.0,5.0,-7.0
412.0,-1.0,122.0,26.0,29.0,137.0,25.0,-12.0
265.0,24.0,85.0,20.0,-26.0,220.0,37.0,-6.0
137.0,28.0,53.0,12.0,-61.0,293.0,61.0,3.0
97.0,34.0,20.0,50.0,3.0,221.0,30.0,23.0
4.0,63.0,-18.0,48.0,-28.0,195.0,16.0,38.0
-82.0,56.0,-53.0,47.0,-34.0,126.0,-6.0,39.0
-146.0,56.0,-34.0,34.0,15.0,141.0,-4.0,29.0
-203.0,50.0,-2.0,3.0,44.0,116.0,-45.0,12.0
-214.0,22.0,-70.0,-8.0,29.0,3.0,-78.0,14.0
-209.0,-33.0,-18.0,-36.0,-7.0,-123.0,-59.0,-19.0
-163.0,-35.0,104.0,-34.0,-17.0,-195.0,-81.0,-37.0
-170.0,-23.0,150.0,-32.0,-19.0,-84.0,-59.0,-62.0
-104.0,-33.0,131.0,-49.0,-4.0,-125.0,-55.0,-108.0
-37.0,-19.0,160.0,-34.0,41.0,-125.0,-46.0,-114.0
-44.0,-29.0,201.0,3.0,33.0,48.0,-38.0,-123.0
-27.0,12.0,207.0,20.0,-54.0,116.0,-36.0,-35.0
4.0,25.0,111.0,7.0,-70.0,148.0,-37.0,-10.0
24.0,-14.0,15.0,-9.0,-77.0,158.0,-63.0,-10.0
-74.0,-18.0,2.0,-14.0,-18.0,115.0,-60.0,19.0
-240.0,-21.0,-64.0,-17.0,58.0,145.0,-81.0,-1.0
-94.0,-53.0,-103.0,-29.0,-1.0,105.0,-74.0,0.0
127.0,-79.0,-145.0,-36.0,-107.0,103.0,-66.0,-13.0
183.0,-46.0,-255.0,-62.0,-221.0,93.0,-46.0,-39.0
251.0,-56.0,-408.0,-44.0,-160.0,37.0,5.0,-35.0
198.0,-6.0,-338.0,-3.0,2.0,81.0,30.0,12.0
175.0,33.0,-145.0,0.0,19.0,78.0,56.0,43.0
64.0,0.0,-17.0,1.0,-50.0,76.0,59.0,91.0
-128.0,23.0,198.0,-34.0,-128.0,43.0,33.0,104.0
-132.0,15.0,272.0,-41.0,-242.0,6.0,7.0,80.0
-284.0,-17.0,244.0,-24.0,-280.0,32.0,35.0,103.0
-555.0,-29.0,189.0,-52.0,-225.0,46.0,83.0,73.0
-296.0,-10.0,96.0,-30.0,-156.0,54.0,66.0,-17.0
52.0,12.0,38.0,-13.0,-128.0,45.0,67.0,-218.0
-41.0,5.0,55.0,-15.0,-162.0,26.0,30.0,-456.0
-388.0,-34.0,101.0,-6.0,-286.0,9.0,3.0,-221.0
-762.0,-34.0,33.0,13.0,-295.0,29.0,62.0,32.0
-1604.0,-11.0,38.0,-5.0,-194.0,2.0,67.0,-49.0
-1546.0,-47.0,24.0,-34.0,-181.0,-1.0,71.0,19.0
-31.0,-52.0,-154.0,-34.0,-211.0,32.0,72.0,-22.0
1155.0,-21.0,-194.0,-23.0,-261.0,39.0,64.0,-1.0
2469.0,6.0,-75.0,1.0,-285.0,50.0,50.0,130.0
2793.0,13.0,-52.0,8.0,-267.0,75.0,38.0,117.0
2210.0,62.0,-64.0,-5.0,-254.0,177.0,59.0,69.0
1311.0,99.0,-25.0,-16.0,-242.0,259.0,67.0,58.0
521.0,111.0,-28.0,-22.0,-256.0,155.0,65.0,52.0
-261.0,121.0,-72.0,-34.0,-284.0,69.0,42.0,11.0
-1487.0,124.0,-78.0,-48.0,-269.0,16.0,41.0,38.0
-1546.0,133.0,-17.0,-71.0,-254.0,-36.0,47.0,27.0
-1110.0,85.0,-9.0,-61.0,-261.0,-23.0,17.0,18.0
-771.0,10.0,-74.0,-57.0,-236.0,-173.0,-7.0,20.0
-294.0,-43.0,-92.0,-65.0,-213.0,-289.0,12.0,44.0
-111.0,-71.0,-37.0,-39.0,-201.0,-85.0,44.0,82.0
291.0,-50.0,-18.0,-36.0,-179.0,99.0,79.0,86.0
725.0,-46.0,-20.0,-19.0,-170.0,154.0,84.0,73.0
758.0,-84.0,-60.0,-5.0,-175.0,209.0,84.0,33.0
699.0,-81.0,-67.0,-18.0,-160.0,228.0,105.0,73.0
538.0,-18.0,-8.0,5.0,-123.0,246.0,102.0,75.0
395.0,2.0,-3.0,15.0,-72.0,197.0,104.0,47.0
37.0,12.0,-7.0,-6.0,-64.0,96.0,99.0,75.0
-193.0,34.0,11.0,-12.0,-45.0,50.0,70.0,72.0
-327.0,77.0,30.0,-1.0,15.0,35.0,67.0,47.0
-584.0,121.0,18.0,23.0,28.0,-65.0,93.0,67.0
-473.0,113.0,24.0,28.0,24.0,-64.0,62.0,48.0
-383.0,22.0,14.0,14.0,12.0,-16.0,61.0,26.0
-605.0,-40.0,27.0,15.0,43.0,72.0,70.0,53.0
-1096.0,-55.0,36.0,10.0,87.0,283.0,43.0,52.0
-1031.0,-20.0,27.0,1.0,92.0,335.0,33.0,41.0
-571.0,7.0,41.0,10.0,144.0,402.0,-9.0,42.0
-366.0,-19.0,-21.0,-13.0,202.0,433.0,-21.0,41.0
45.0,-40.0,-10.0,-6.0,235.0,217.0,-16.0,28.0
408.0,-56.0,17.0,2.0,219.0,18.0,-30.0,24.0
603.0,-22.0,-5.0,-55.0,216.0,-232.0,-60.0,-5.0
563.0,10.0,9.0,-35.0,232.0,-342.0,-68.0,1.0
408.0,53.0,24.0,-31.0,212.0,-350.0,-51.0,17.0
269.0,59.0,38.0,-39.0,245.0,-661.0,-43.0,-29.0
132.0,7.0,52.0,-22.0,288.0,-607.0,-11.0,3.0
7.0,-41.0,68.0,-43.0,273.0,-323.0,-9.0,16.0
-99.0,-26.0,64.0,-60.0,267.0,-188.0,-16.0,-15.0
-260.0,4.0,-8.0,-86.0,264.0,55.0,-30.0,-22.0
-560.0,18.0,-138.0,-101.0,245.0,47.0,-46.0,-22.0
-453.0,38.0,-218.0,-90.0,258.0,10.0,-45.0,0.0
-102.0,5.0,-158.0,-46.0,255.0,23.0,-75.0,12.0
104.0,20.0,-47.0,-15.0,219.0,22.0,-81.0,13.0
235.0,2.0,-18.0,-13.0,220.0,30.0,-55.0,23.0
214.0,-4.0,16.0,18.0,204.0,12.0,-21.0,40.0
147.0,-2.0,98.0,27.0,196.0,34.0,2.0,43.0
31.0,-1.0,76.0,22.0,182.0,87.0,10.0,56.0
-97.0,9.0,27.0,19.0,164.0,111.0,42.0,88.0
39.0,1.0,-54.0,20.0,153.0,87.0,54.0,87.0
149.0,30.0,-75.0,53.0,128.0,51.0,58.0,100.0
169.0,5.0,-51.0,18.0,53.0,-44.0,53.0,106.0
184.0,12.0,-75.0,5.0,-29.0,-94.0,43.0,67.0
177.0,-13.0,-2.0,19.0,-67.0,-51.0,37.0,12.0
82.0,9.0,39.0,-6.0,-88.0,-30.0,41.0,-11.0
-78.0,9.0,68.0,7.0,-75.0,-54.0,51.0,-3.0
-154.0,-14.0,138.0,4.0,-79.0,-48.0,61.0,-22.0
-327.0,3.0,173.0,-2.0,-105.0,-61.0,90.0,-6.0
-323.0,-7.0,129.0,-36.0,-183.0,-42.0,110.0,40.0
-138.0,5.0,35.0,-43.0,-248.0,-48.0,114.0,82.0
-85.0,-35.0,27.0,32.0,-220.0,-58.0,104.0,76.0
-15.0,-27.0,93.0,31.0,-195.0,-72.0,87.0,83.0
20.0,-21.0,122.0,22.0,-212.0,-75.0,47.0,99.0
20.0,22.0,75.0,19.0,-278.0,-89.0,21.0,66.0
7.0,41.0,67.0,-2.0,-313.0,-93.0,19.0,46.0
95.0,-1.0,28.0,-33.0,-351.0,-65.0,39.0,43.0
118.0,16.0,-82.0,-88.0,-374.0,-37.0,51.0,53.0
253.0,22.0,-145.0,-71.0,-326.0,-34.0,37.0,36.0
473.0,46.0,-132.0,-17.0,-328.0,-32.0,32.0,33.0
373.0,-11.0,-63.0,-14.0,-379.0,-29.0,25.0,36.0
423.0,-49.0,10.0,-16.0,-395.0,-43.0,20.0,47.0
589.0,-16.0,24.0,-13.0,-372.0,-33.0,37.0,55.0
659.0,-113.0,-20.0,-32.0,-360.0,-58.0,37.0,46.0
521.0,-125.0,-17.0,-52.0,-315.0,-39.0,12.0,22.0
136.0,-93.0,-11.0,-53.0,-291.0,-52.0,5.0,0.0
-339.0,-127.0,-36.0,-48.0,-319.0,-69.0,-32.0,6.0
-691.0,-112.0,-10.0,-44.0,-333.0,-39.0,-30.0,-15.0
-649.0,-53.0,-23.0,-37.0,-356.0,-48.0,-23.0,1.0
-550.0,44.0,-31.0,-60.0,-314.0,-25.0,-16.0,4.0
-313.0,135.0,-2.0,-51.0,-267.0,5.0,12.0,15.0
-301.0,193.0,1.0,-36.0,-199.0,32.0,2.0,51.0
-346.0,248.0,24.0,-15.0,-125.0,65.0,19.0,56.0
-251.0,182.0,4.0,12.0,-124.0,53.0,-2.0,55.0
-331.0,16.0,-17.0,-14.0,-116.0,90.0,-11.0,24.0
-255.0,14.0,5.0,13.0,-147.0,107.0,2.0,51.0
-150.0,12.0,32.0,-13.0,-150.0,84.0,-13.0,30.0
-52.0,-23.0,15.0,-22.0,-138.0,123.0,-21.0,9.0
-75.0,-45.0,3.0,-13.0,-81.0,115.0,-12.0,43.0
-90.0,-78.0,3.0,-28.0,12.0,127.0,-13.0,32.0
-27.0,-110.0,-8.0,-16.0,80.0,137.0,6.0,62.0
-2.0,-125.0,33.0,-10.0,136.0,134.0,-4.0,61.0
41.0,-80.0,15.0,-5.0,184.0,146.0,-18.0,46.0
56.0,-53.0,18.0,-11.0,237.0,107.0,-7.0,54.0
94.0,-51.0,21.0,11.0,261.0,79.0,-10.0,56.0
119.0,-47.0,16.0,-9.0,334.0,70.0,40.0,80.0
125.0,-42.0,57.0,16.0,431.0,107.0,20.0,87.0
-184.0,-44.0,36.0,32.0,489.0,100.0,30.0,64.0
-1750.0,-33.0,65.0,16.0,541.0,94.0,20.0,63.0
-3180.0,-55.0,60.0,42.0,528.0,87.0,26.0,59.0
-2124.0,-18.0,62.0,15.0,505.0,45.0,73.0,53.0
-294.0,17.0,79.0,28.0,503.0,25.0,43.0,54.0
1690.0,20.0,68.0,12.0,466.0,7.0,76.0,56.0
3182.0,48.0,45.0,11.0,406.0,21.0,62.0,37.0
3171.0,46.0,-54.0,-26.0,342.0,12.0,33.0,20.0
2453.0,53.0,-65.0,-59.0,292.0,-15.0,35.0,-3.0
1280.0,22.0,-106.0,-65.0,337.0,-32.0,37.0,15.0
595.0,10.0,-151.0,-63.0,456.0,-34.0,24.0,38.0
314.0,27.0,-118.0,6.0,505.0,-12.0,13.0,14.0
427.0,40.0,-97.0,-14.0,532.0,-47.0,23.0,21.0
342.0,50.0,-106.0,-50.0,570.0,-56.0,6.0,-5.0
141.0,103.0,-98.0,-37.0,586.0,-36.0,5.0,-40.0
-283.0,209.0,-99.0,-54.0,570.0,-41.0,-4.0,-43.0
-691.0,227.0,-107.0,-83.0,480.0,-46.0,26.0,-67.0
-523.0,205.0,-67.0,-111.0,338.0,-81.0,53.0,-98.0
-545.0,135.0,19.0,-69.0,241.0,-93.0,40.0,-83.0
-555.0,55.0,104.0,-10.0,245.0,-89.0,46.0,-80.0
-679.0,51.0,104.0,-7.0,302.0,-48.0,34.0,-131.0
-634.0,2.0,116.0,-21.0,428.0,6.0,41.0,-136.0
-567.0,-38.0,128.0,-22.0,618.0,70.0,29.0,-43.0
-469.0,-41.0,88.0,-28.0,771.0,90.0,29.0,208.0
-239.0,-68.0,18.0,-6.0,875.0,35.0,58.0,196.0
-107.0,-87.0,-44.0,22.0,815.0,8.0,51.0,67.0
-90.0,-64.0,-46.0,21.0,758.0,12.0,71.0,134.0
-480.0,-42.0,-43.0,16.0,758.0,21.0,75.0,90.0
-589.0,-95.0,-74.0,-2.0,748.0,25.0,74.0,96.0
-307.0,-111.0,-110.0,4.0,747.0,35.0,42.0,91.0
-209.0,-77.0,-42.0,20.0,800.0,47.0,51.0,58.0
169.0,-42.0,70.0,67.0,857.0,56.0,86.0,44.0
820.0,-46.0,64.0,55.0,822.0,21.0,84.0,11.0
986.0,-33.0,30.0,18.0,778.0,-4.0,79.0,3.0
1051.0,-30.0,11.0,5.0,790.0,13.0,79.0,-48.0
710.0,-43.0,-4.0,-36.0,758.0,3.0,102.0,-62.0
306.0,-94.0,-66.0,-44.0,731.0,45.0,123.0,-67.0
10.0,-84.0,-41.0,-11.0,771.0,47.0,137.0,-53.0
-498.0,-32.0,-27.0,18.0,758.0,22.0,110.0,-70.0
-915.0,-36.0,18.0,37.0,562.0,2.0,105.0,-72.0
-1196.0,24.0,83.0,29.0,390.0,-21.0,89.0,-66.0
-1110.0,113.0,12.0,3.0,362.0,13.0,62.0,-68.0
-954.0,157.0,3.0,-13.0,466.0,18.0,48.0,-75.0
-492.0,179.0,25.0,-40.0,619.0,61.0,29.0,-80.0
-140.0,144.0,44.0,-72.0,456.0,73.0,-30.0,-55.0
76.0,106.0,39.0,-71.0,136.0,14.0,-62.0,-42.0
228.0,80.0,64.0,-54.0,-26.0,-26.0,-85.0,-39.0
196.0,44.0,72.0,-38.0,-272.0,-47.0,-143.0,-54.0
302.0,27.0,42.0,-36.0,-311.0,32.0,-82.0,-36.0
243.0,53.0,85.0,-12.0,-29.0,139.0,-4.0,-24.0
215.0,102.0,104.0,25.0,76.0,167.0,11.0,-19.0
220.0,66.0,23.0,16.0,-43.0,170.0,-6.0,-32.0
125.0,22.0,-80.0,-10.0,-385.0,106.0,-15.0,-63.0
54.0,4.0,-78.0,2.0,-708.0,15.0,1.0,-49.0
63.0,-12.0,-99.0,7.0,-901.0,-15.0,-25.0,-44.0
89.0,-35.0,-102.0,-14.0,-1032.0,7.0,-19.0,-49.0
85.0,-72.0,-67.0,-26.0,-1039.0,27.0,-18.0,-66.0
215.0,-59.0,-137.0,-65.0,-1007.0,76.0,-24.0,-63.0
325.0,-59.0,-409.0,-113.0,-1012.0,160.0,-17.0,-51.0
147.0,-69.0,-688.0,-101.0,-1007.0,223.0,-21.0,-60.0
-3.0,-55.0,-637.0,-76.0,-877.0,274.0,-9.0,-54.0
-20.0,-63.0,-434.0,-93.0,-797.0,220.0,-39.0,-50.0
-412.0,-72.0,-110.0,-61.0,-746.0,189.0,0.0,-40.0
-604.0,-34.0,136.0,-30.0,-812.0,146.0,42.0,-32.0
-418.0,-53.0,236.0,-6.0,-913.0,123.0,22.0,-15.0
-128.0,-72.0,306.0,6.0,-909.0,148.0,45.0,-12.0
314.0,-21.0,231.0,-2.0,-913.0,129.0,81.0,-4.0
465.0,-45.0,246.0,-13.0,-877.0,119.0,97.0,10.0
342.0,-46.0,205.0,-2.0,-1007.0,113.0,129.0,21.0
-113.0,17.0,-46.0,30.0,-1077.0,132.0,178.0,7.0
-197.0,45.0,-480.0,39.0,-877.0,166.0,138.0,-2.0
33.0,27.0,-538.0,42.0,-724.0,194.0,93.0,-5.0
235.0,80.0,-251.0,23.0,-537.0,268.0,33.0,-30.0
651.0,158.0,64.0,22.0,-399.0,259.0,-79.0,-13.0
731.0,142.0,395.0,-7.0,-321.0,189.0,-182.0,-3.0
603.0,120.0,569.0,13.0,-291.0,185.0,-267.0,-6.0
241.0,57.0,630.0,0.0,-248.0,176.0,-261.0,-18.0
-92.0,38.0,459.0,-49.0,-111.0,154.0,-197.0,-14.0
-213.0,15.0,349.0,-5.0,61.0,200.0,-125.0,-11.0
-191.0,-22.0,279.0,-6.0,73.0,298.0,-26.0,-1.0
-164.0,-50.0,195.0,-19.0,-246.0,278.0,44.0,13.0
-412.0,-98.0,163.0,2.0,-360.0,278.0,-3.0,12.0
-284.0,-46.0,52.0,12.0,-131.0,345.0,2.0,-8.0
-94.0,-57.0,-50.0,-11.0,159.0,303.0,59.0,-53.0
-740.0,-44.0,-22.0,-7.0,361.0,256.0,68.0,-55.0
-1422.0,5.0,-38.0,5.0,334.0,191.0,56.0,-59.0
-1815.0,-26.0,-154.0,1.0,288.0,109.0,35.0,-54.0
-1552.0,-34.0,-200.0,-9.0,224.0,142.0,31.0,-34.0
-213.0,-37.0,-308.0,-8.0,208.0,134.0,8.0,-22.0
1105.0,-6.0,-354.0,-21.0,255.0,119.0,-14.0,-20.0
2223.0,28.0,-385.0,-28.0,242.0,81.0,-16.0,-13.0
2614.0,36.0,-545.0,-30.0,310.0,29.0,-19.0,17.0
2080.0,-17.0,-627.0,-44.0,385.0,14.0,-50.0,-12.0
1296.0,-8.0,-645.0,-24.0,290.0,6.0,-27.0,-32.0
505.0,64.0,-607.0,-19.0,104.0,24.0,4.0,-59.0
71.0,84.0,-566.0,-28.0,36.0,-20.0,27.0,-78.0
-302.0,71.0,-580.0,-49.0,58.0,-62.0,90.0,-59.0
-388.0,49.0,-515.0,-26.0,106.0,-70.0,62.0,-44.0
-551.0,75.0,-469.0,-38.0,106.0,-51.0,23.0,-39.0
-909.0,82.0,-373.0,-53.0,20.0,-33.0,38.0,10.0
-1206.0,86.0,-212.0,-14.0,12.0,-40.0,58.0,26.0
-1105.0,43.0,-76.0,4.0,-17.0,-14.0,74.0,51.0
-739.0,2.0,77.0,54.0,-27.0,-25.0,75.0,89.0
-508.0,-23.0,173.0,41.0,70.0,-68.0,66.0,112.0
-283.0,-34.0,207.0,30.0,166.0,-68.0,21.0,153.0
-327.0,-44.0,241.0,42.0,200.0,-88.0,-45.0,122.0
-654.0,-93.0,278.0,25.0,75.0,-123.0,-89.0,79.0
-844.0,-113.0,299.0,23.0,-54.0,-110.0,-122.0,38.0
-539.0,-131.0,313.0,-2.0,-295.0,-88.0,-117.0,72.0
11.0,-140.0,356.0,4.0,-584.0,-97.0,-98.0,77.0
464.0,-138.0,376.0,18.0,-588.0,-98.0,34.0,112.0
784.0,-98.0,333.0,18.0,-437.0,-71.0,250.0,221.0
920.0,-45.0,321.0,-13.0,-267.0,-78.0,394.0,239.0
908.0,-40.0,260.0,2.0,-162.0,-84.0,464.0,276.0
705.0,-26.0,207.0,5.0,-164.0,-133.0,329.0,230.0
499.0,-10.0,204.0,-70.0,-138.0,-182.0,218.0,178.0
281.0,-24.0,187.0,-76.0,-16.0,-159.0,178.0,130.0
116.0,-7.0,186.0,-112.0,-4.0,-163.0,155.0,98.0
-150.0,12.0,200.0,-140.0,-95.0,-194.0,119.0,105.0
-502.0,31.0,213.0,-152.0,-274.0,-226.0,73.0,70.0
-523.0,83.0,219.0,-127.0,-199.0,-255.0,67.0,74.0
-426.0,86.0,219.0,-112.0,-62.0,-247.0,16.0,69.0
-341.0,66.0,218.0,-93.0,-22.0,-163.0,0.0,80.0
-92.0,80.0,246.0,-67.0,162.0,-135.0,-37.0,78.0
50.0,57.0,217.0,-62.0,144.0,-240.0,-31.0,80.0
241.0,30.0,202.0,-42.0,161.0,-332.0,-30.0,78.0
333.0,43.0,213.0,-68.0,187.0,-331.0,-50.0,88.0
250.0,14.0,189.0,-32.0,105.0,-318.0,-41.0,107.0
234.0,14.0,205.0,-21.0,80.0,-358.0,-65.0,86.0
180.0,14.0,201.0,-30.0,125.0,-350.0,-78.0,105.0
114.0,-16.0,152.0,-25.0,171.0,-297.0,-107.0,90.0
-75.0,-22.0,116.0,-31.0,86.0,-323.0,-91.0,75.0
-150.0,-14.0,104.0,-8.0,41.0,-332.0,-82.0,83.0
-172.0,11.0,100.0,3.0,122.0,-277.0,-26.0,84.0
-125.0,16.0,46.0,7.0,119.0,-258.0,-23.0,62.0
-107.0,17.0,7.0,16.0,49.0,-247.0,-43.0,60.0
-242.0,12.0,17.0,28.0,96.0,-214.0,19.0,50.0
-379.0,7.0,12.0,16.0,166.0,-175.0,-14.0,15.0
-428.0,-4.0,-9.0,22.0,89.0,-142.0,4.0,14.0
-305.0,8.0,8.0,12.0,-1.0,-137.0,5.0,39.0
-170.0,1.0,-8.0,12.0,23.0,-104.0,20.0,18.0
41.0,-28.0,-31.0,10.0,141.0,-84.0,41.0,27.0
248.0,-68.0,-3.0,-6.0,154.0,-97.0,0.0,16.0
310.0,-63.0,20.0,20.0,1.0,-76.0,13.0,12.0
145.0,-47.0,47.0,7.0,49.0,5.0,19.0,45.0
-92.0,14.0,83.0,60.0,155.0,42.0,73.0,56.0
-141.0,16.0,82.0,60.0,-2.0,29.0,100.0,83.0
-52.0,5.0,9.0,27.0,14.0,19.0,107.0,76.0
64.0,31.0,-44.0,20.0,-56.0,6.0,124.0,75.0
212.0,-5.0,-49.0,-17.0,-295.0,-7.0,102.0,60.0
395.0,74.0,-52.0,11.0,-261.0,-1.0,76.0,42.0
462.0,80.0,-73.0,16.0,-79.0,17.0,148.0,34.0
275.0,64.0,-107.0,18.0,194.0,86.0,232.0,74.0
86.0,50.0,-90.0,13.0,97.0,138.0,254.0,92.0
14.0,59.0,-107.0,10.0,-201.0,154.0,232.0,60.0
-88.0,60.0,-112.0,33.0,-222.0,178.0,196.0,88.0
-144.0,60.0,-61.0,26.0,-5.0,213.0,168.0,47.0
-177.0,87.0,-99.0,1.0,83.0,245.0,84.0,39.0
-227.0,57.0,-138.0,9.0,137.0,243.0,79.0,58.0
-211.0,81.0,-143.0,9.0,340.0,262.0,77.0,36.0
-114.0,34.0,-135.0,0.0,358.0,259.0,25.0,62.0
15.0,-2.0,-125.0,8.0,314.0,210.0,-33.0,28.0
131.0,-36.0,-128.0,-12.0,245.0,154.0,-159.0,3.0
212.0,-43.0,-104.0,-14.0,219.0,105.0,-145.0,25.0
273.0,13.0,-111.0,-6.0,219.0,126.0,28.0,-6.0
333.0,9.0,-125.0,-18.0,243.0,104.0,93.0,-25.0
17.0,5.0,-132.0,-28.0,288.0,109.0,29.0,-16.0
-331.0,4.0,-237.0,-32.0,267.0,97.0,-1.0,-18.0
-118.0,13.0,-257.0,-5.0,308.0,51.0,30.0,-3.0
-6.0,-49.0,-88.0,5.0,320.0,58.0,69.0,-21.0
15.0,-98.0,-9.0,7.0,232.0,0.0,11.0,-10.0
-99.0,-64.0,85.0,0.0,234.0,16.0,-26.0,-7.0
-515.0,-37.0,163.0,12.0,267.0,11.0,-23.0,-65.0
-361.0,-38.0,142.0,16.0,310.0,-23.0,-62.0,-85.0
-109.0,-23.0,81.0,-8.0,462.0,-15.0,-95.0,-81.0
-105.0,-23.0,-5.0,-29.0,480.0,-44.0,-159.0,-104.0
-39.0,-3.0,-26.0,-36.0,391.0,-53.0,-124.0,-81.0
-55.0,65.0,-24.0,11.0,293.0,-57.0,-80.0,-74.0
-116.0,59.0,-33.0,-5.0,214.0,-66.0,-27.0,-89.0
-228.0,43.0,-66.0,-19.0,218.0,-88.0,70.0,-62.0
-128.0,6.0,-95.0,-7.0,367.0,-101.0,96.0,-95.0
33.0,-12.0,-86.0,-38.0,467.0,-120.0,45.0,-60.0
-136.0,-3.0,-48.0,-28.0,432.0,-83.0,29.0,-42.0
-836.0,-62.0,-98.0,-32.0,450.0,-57.0,36.0,-64.0
-1567.0,-77.0,-148.0,-40.0,457.0,-45.0,12.0,-55.0
-1457.0,-19.0,-120.0,-45.0,583.0,1.0,54.0,-59.0
-379.0,-18.0,-72.0,-67.0,627.0,6.0,50.0,-47.0
976.0,-19.0,70.0,-26.0,562.0,-16.0,-13.0,-65.0
2093.0,-55.0,152.0,-7.0,570.0,-35.0,-104.0,-48.0
2715.0,-80.0,73.0,-41.0,666.0,6.0,-139.0,-45.0
2536.0,-15.0,5.0,-25.0,701.0,26.0,-66.0,-59.0
1611.0,26.0,-87.0,-32.0,589.0,26.0,-68.0,-34.0
473.0,38.0,-233.0,-35.0,444.0,20.0,-109.0,-26.0
-157.0,-8.0,-625.0,-22.0,273.0,-10.0,-91.0,-25.0
-457.0,-51.0,-866.0,-61.0,151.0,-10.0,-51.0,-55.0
-580.0,-32.0,-498.0,-69.0,196.0,24.0,-33.0,-76.0
-844.0,-26.0,-66.0,-68.0,320.0,40.0,-4.0,-63.0
-1292.0,-38.0,343.0,-97.0,403.0,15.0,79.0,-42.0
-1457.0,-37.0,728.0,-81.0,403.0,4.0,148.0,-49.0
-1267.0,20.0,1045.0,-43.0,471.0,14.0,143.0,-46.0
-844.0,45.0,923.0,-40.0,677.0,90.0,132.0,-42.0
-331.0,17.0,498.0,-52.0,831.0,107.0,160.0,14.0
209.0,1.0,174.0,-74.0,800.0,78.0,154.0,24.0
530.0,-15.0,-123.0,-112.0,751.0,53.0,93.0,10.0
595.0,0.0,-69.0,-61.0,758.0,36.0,37.0,29.0
538.0,3.0,-160.0,-2.0,751.0,58.0,52.0,8.0
243.0,0.0,-328.0,11.0,676.0,54.0,25.0,13.0
93.0,48.0,-237.0,48.0,603.0,48.0,-31.0,27.0
66.0,77.0,-147.0,32.0,627.0,47.0,-28.0,63.0
176.0,105.0,-121.0,62.0,627.0,47.0,23.0,78.0
176.0,117.0,-111.0,81.0,612.0,46.0,71.0,86.0
-75.0,109.0,-86.0,65.0,615.0,40.0,82.0,100.0
-193.0,124.0,-105.0,52.0,526.0,24.0,95.0,83.0
-227.0,66.0,-77.0,19.0,473.0,-8.0,65.0,74.0
-319.0,-21.0,-37.0,25.0,440.0,-12.0,67.0,44.0
-412.0,-45.0,-49.0,33.0,209.0,-1.0,81.0,39.0
-425.0,-51.0,-82.0,10.0,-55.0,-14.0,61.0,26.0
-343.0,-26.0,-92.0,-8.0,-197.0,2.0,54.0,37.0
-76.0,-11.0,-83.0,-9.0,-281.0,42.0,51.0,34.0
95.0,16.0,-47.0,-30.0,-299.0,62.0,47.0,35.0
245.0,27.0,-15.0,-44.0,-399.0,13.0,8.0,27.0
382.0,7.0,-13.0,-32.0,-391.0,25.0,-52.0,13.0
306.0,7.0,29.0,-34.0,-345.0,66.0,-105.0,40.0
239.0,-7.0,39.0,-20.0,-486.0,21.0,-125.0,-8.0
93.0,-5.0,24.0,-15.0,-593.0,5.0,-39.0,-19.0
27.0,11.0,36.0,-22.0,-681.0,10.0,33.0,-26.0
77.0,20.0,54.0,-41.0,-812.0,18.0,-3.0,-39.0
-44.0,27.0,21.0,-37.0,-1052.0,17.0,-34.0,-16.0
-412.0,11.0,7.0,-14.0,-1244.0,20.0,-35.0,-31.0
-457.0,-36.0,7.0,-32.0,-1072.0,39.0,-22.0,-47.0
-104.0,-46.0,7.0,-39.0,-803.0,32.0,-47.0,-25.0
62.0,-71.0,10.0,-41.0,-738.0,26.0,-19.0,-12.0
-118.0,-97.0,16.0,-29.0,-818.0,16.0,12.0,-29.0
-386.0,-101.0,-1.0,-42.0,-942.0,-29.0,25.0,5.0
-111.0,-72.0,-41.0,-61.0,-1007.0,-95.0,25.0,21.0
60.0,-72.0,-36.0,-45.0,-993.0,-128.0,-9.0,-3.0
119.0,-96.0,-14.0,-28.0,-909.0,-133.0,-3.0,21.0
398.0,-67.0,-21.0,-28.0,-856.0,-98.0,-22.0,41.0
725.0,-68.0,-24.0,-21.0,-681.0,-53.0,0.0,49.0
920.0,-12.0,-1.0,-12.0,-523.0,-56.0,-7.0,58.0
782.0,8.0,-3.0,-11.0,-551.0,-35.0,-30.0,92.0
608.0,37.0,27.0,20.0,-413.0,6.0,-8.0,108.0
195.0,82.0,0.0,1.0,-308.0,-27.0,-40.0,75.0
-207.0,50.0,-32.0,5.0,-313.0,-28.0,-38.0,72.0
-510.0,82.0,-36.0,19.0,-356.0,-9.0,0.0,76.0
-844.0,121.0,-45.0,14.0,-484.0,-11.0,78.0,79.0
-966.0,120.0,-9.0,-5.0,-351.0,-6.0,203.0,60.0
-815.0,125.0,-10.0,-16.0,-194.0,18.0,181.0,50.0
-502.0,121.0,-4.0,-2.0,-234.0,45.0,83.0,63.0
-284.0,116.0,-7.0,2.0,-351.0,-3.0,44.0,61.0
-161.0,114.0,4.0,1.0,-356.0,16.0,5.0,72.0
7.0,89.0,36.0,-29.0,-345.0,-11.0,13.0,47.0
327.0,43.0,21.0,-40.0,-299.0,-29.0,37.0,41.0
656.0,28.0,51.0,-5.0,-215.0,31.0,18.0,32.0
784.0,5.0,66.0,-1.0,-291.0,30.0,-3.0,-5.0
725.0,-33.0,56.0,-6.0,-286.0,40.0,-17.0,17.0
443.0,-51.0,67.0,-34.0,-324.0,32.0,-33.0,27.0
241.0,-80.0,44.0,-38.0,-434.0,68.0,-18.0,15.0
62.0,-84.0,48.0,-32.0,-490.0,69.0,9.0,47.0
-107.0,-86.0,83.0,-34.0,-419.0,88.0,21.0,62.0
-191.0,-57.0,67.0,-27.0,-225.0,176.0,-26.0,39.0
-266.0,-72.0,44.0,-38.0,-157.0,183.0,-24.0,31.0
-300.0,-60.0,-5.0,-48.0,-110.0,189.0,-30.0,20.0
-280.0,-23.0,-47.0,-48.0,-176.0,152.0,-72.0,5.0
-318.0,-56.0,-29.0,-34.0,-208.0,144.0,4.0,15.0
-476.0,-13.0,-31.0,-6.0,-195.0,156.0,38.0,45.0
-654.0,27.0,-26.0,4.0,-259.0,189.0,78.0,49.0
-1018.0,50.0,-22.0,10.0,-281.0,210.0,107.0,70.0
-979.0,27.0,-30.0,-1.0,-307.0,200.0,78.0,75.0
-432.0,30.0,-23.0,12.0,-321.0,232.0,72.0,74.0
232.0,50.0,0.0,29.0,-327.0,254.0,39.0,71.0
844.0,-2.0,-3.0,25.0,-374.0,229.0,21.0,41.0
1091.0,24.0,-2.0,32.0,-352.0,217.0,27.0,34.0
1102.0,52.0,-7.0,29.0,-246.0,235.0,34.0,27.0
798.0,34.0,-73.0,13.0,-280.0,201.0,7.0,8.0
373.0,2.0,-93.0,-13.0,-314.0,180.0,-2.0,-20.0
143.0,27.0,-67.0,20.0,-286.0,220.0,132.0,-8.0
9.0,18.0,-8.0,32.0,-254.0,248.0,200.0,14.0
-95.0,-29.0,5.0,35.0,-102.0,220.0,162.0,-14.0
-205.0,-17.0,-15.0,13.0,30.0,194.0,78.0,-11.0
-244.0,-7.0,34.0,-19.0,80.0,216.0,50.0,-7.0
-308.0,-24.0,77.0,7.0,-27.0,197.0,79.0,1.0
-331.0,-24.0,71.0,-7.0,-155.0,163.0,42.0,-5.0
-331.0,-32.0,42.0,-22.0,-168.0,123.0,12.0,-25.0
-538.0,-7.0,28.0,-38.0,-229.0,136.0,8.0,-9.0
-954.0,47.0,-6.0,-52.0,-400.0,171.0,48.0,27.0
-945.0,25.0,-36.0,-69.0,-465.0,249.0,85.0,23.0
-341.0,22.0,-28.0,-72.0,-328.0,348.0,53.0,-11.0
325.0,40.0,-37.0,-57.0,-114.0,368.0,35.0,-30.0
920.0,12.0,-26.0,-54.0,47.0,445.0,37.0,-33.0
1130.0,-30.0,-16.0,-29.0,41.0,469.0,28.0,29.0
1059.0,-25.0,57.0,-12.0,-73.0,455.0,14.0,28.0
697.0,-43.0,30.0,-15.0,-82.0,408.0,-22.0,10.0
145.0,-88.0,-17.0,-25.0,-46.0,361.0,-2.0,43.0
-514.0,-62.0,-21.0,-52.0,-76.0,337.0,28.0,37.0
-647.0,-10.0,-36.0,-36.0,-98.0,284.0,31.0,63.0
-177.0,4.0,-98.0,-45.0,-116.0,256.0,50.0,70.0
141.0,-13.0,-131.0,-15.0,-124.0,219.0,54.0,78.0
473.0,8.0,38.0,18.0,-143.0,194.0,42.0,59.0
530.0,25.0,77.0,2.0,-133.0,166.0,41.0,28.0
387.0,14.0,7.0,-18.0,-70.0,171.0,42.0,39.0
197.0,8.0,-66.0,-28.0,-25.0,172.0,24.0,42.0
-98.0,-2.0,-129.0,-8.0,12.0,148.0,-6.0,32.0
-220.0,10.0,-116.0,22.0,19.0,151.0,-8.0,22.0
-230.0,19.0,-12.0,13.0,49.0,129.0,7.0,22.0
-258.0,37.0,101.0,28.0,82.0,119.0,6.0,49.0
-295.0,85.0,89.0,30.0,114.0,132.0,-23.0,53.0
-301.0,50.0,15.0,-10.0,144.0,101.0,-29.0,31.0
-288.0,44.0,-23.0,3.0,106.0,32.0,-18.0,8.0
-311.0,48.0,15.0,5.0,5.0,1.0,1.0,-15.0
-240.0,53.0,101.0,25.0,-36.0,2.0,-3.0,-27.0
-116.0,50.0,128.0,1.0,-1.0,-56.0,-33.0,-42.0
-207.0,-2.0,112.0,-6.0,58.0,-48.0,-32.0,-48.0
-203.0,-46.0,125.0,9.0,235.0,-44.0,-17.0,-46.0
-126.0,-75.0,33.0,-28.0,237.0,-110.0,-24.0,-49.0
-87.0,-39.0,-86.0,-53.0,176.0,-130.0,-22.0,-29.0
36.0,6.0,-114.0,-49.0,247.0,-149.0,-2.0,9.0
134.0,-7.0,-91.0,-13.0,247.0,-140.0,-6.0,50.0
102.0,-15.0,-1.0,-13.0,293.0,-130.0,22.0,52.0
-23.0,-27.0,18.0,-21.0,237.0,-161.0,8.0,12.0
-34.0,3.0,-13.0,-12.0,272.0,-116.0,-4.0,-5.0
132.0,30.0,-26.0,-32.0,440.0,-72.0,13.0,-5.0
277.0,-35.0,-42.0,-56.0,505.0,-78.0,16.0,-32.0
247.0,-8.0,-47.0,-47.0,621.0,-115.0,5.0,-29.0
69.0,12.0,-5.0,-44.0,621.0,-154.0,26.0,-44.0
-177.0,17.0,-6.0,-30.0,612.0,-141.0,71.0,-29.0
-240.0,17.0,-67.0,6.0,562.0,-148.0,61.0,-11.0
-125.0,28.0,-76.0,-36.0,489.0,-149.0,56.0,-32.0
85.0,37.0,-80.0,-34.0,556.0,-129.0,74.0,6.0
137.0,16.0,-57.0,-12.0,570.0,-107.0,38.0,12.0
107.0,24.0,-3.0,-2.0,554.0,-146.0,-3.0,-19.0
90.0,33.0,7.0,-13.0,479.0,-221.0,-34.0,-37.0
-212.0,85.0,-3.0,-40.0,425.0,-221.0,-48.0,-62.0
-323.0,60.0,3.0,-38.0,440.0,-184.0,-44.0,-66.0
-177.0,34.0,12.0,-34.0,440.0,-158.0,-52.0,-86.0
55.0,33.0,5.0,-16.0,497.0,-125.0,-36.0,-84.0
378.0,16.0,-8.0,-28.0,484.0,-112.0,-50.0,-46.0
444.0,-23.0,8.0,-7.0,484.0,-84.0,-33.0,-13.0
253.0,-53.0,-1.0,6.0,523.0,-116.0,-61.0,1.0
220.0,-54.0,15.0,8.0,485.0,-140.0,-90.0,-17.0
38.0,-56.0,2.0,-9.0,444.0,-146.0,-63.0,-6.0
-266.0,-59.0,-69.0,-47.0,375.0,-140.0,-95.0,-9.0
-396.0,-88.0,-64.0,-32.0,375.0,-109.0,-75.0,-26.0
-779.0,-53.0,-21.0,-26.0,375.0,-114.0,-79.0,-23.0
-712.0,-40.0,-9.0,-47.0,328.0,-95.0,-24.0,-16.0
-83.0,-47.0,-8.0,-54.0,367.0,-116.0,-11.0,-18.0
139.0,-44.0,-3.0,-48.0,415.0,-119.0,72.0,0.0
406.0,-44.0,-41.0,-36.0,415.0,-102.0,155.0,1.0
460.0,-20.0,-10.0,-18.0,440.0,-87.0,116.0,25.0
263.0,26.0,-1.0,-5.0,462.0,-82.0,135.0,30.0
212.0,69.0,-38.0,-2.0,420.0,-94.0,116.0,44.0
16.0,124.0,-24.0,12.0,391.0,-133.0,124.0,61.0
-67.0,121.0,-90.0,5.0,285.0,-200.0,113.0,33.0
-192.0,57.0,-297.0,7.0,128.0,-139.0,97.0,49.0
-647.0,44.0,-628.0,6.0,123.0,-94.0,90.0,50.0
-1019.0,38.0,-596.0,49.0,358.0,-65.0,79.0,44.0
-563.0,54.0,-298.0,30.0,462.0,-33.0,58.0,53.0
-10.0,50.0,50.0,-1.0,399.0,-28.0,56.0,60.0
505.0,37.0,476.0,33.0,398.0,-20.0,28.0,53.0
1051.0,12.0,669.0,12.0,342.0,-92.0,69.0,50.0
1030.0,-26.0,716.0,0.0,207.0,-154.0,148.0,24.0
745.0,-39.0,512.0,-23.0,190.0,-124.0,79.0,34.0
296.0,-59.0,395.0,-33.0,266.0,-24.0,48.0,24.0
-27.0,-45.0,253.0,-8.0,255.0,-58.0,48.0,21.0
-142.0,-26.0,37.0,-48.0,247.0,-71.0,56.0,53.0
-113.0,-20.0,55.0,-37.0,219.0,-51.0,42.0,28.0
-83.0,3.0,-54.0,-15.0,196.0,-54.0,20.0,49.0
-141.0,-12.0,-198.0,-41.0,212.0,-90.0,32.0,47.0
-323.0,-14.0,-185.0,-17.0,249.0,-68.0,78.0,80.0
-771.0,22.0,-129.0,10.0,217.0,23.0,191.0,86.0
-818.0,40.0,-80.0,28.0,109.0,3.0,262.0,78.0
-518.0,42.0,-48.0,16.0,118.0,38.0,234.0,102.0
-339.0,55.0,-82.0,0.0,106.0,84.0,167.0,74.0
-31.0,43.0,-67.0,-6.0,0.0,78.0,132.0,66.0
436.0,16.0,-102.0,0.0,-39.0,68.0,144.0,37.0
725.0,17.0,-85.0,5.0,-49.0,64.0,152.0,43.0
920.0,6.0,-64.0,-17.0,-99.0,31.0,67.0,58.0
888.0,-19.0,-96.0,-8.0,-147.0,10.0,-13.0,56.0
719.0,9.0,-50.0,0.0,-149.0,26.0,-56.0,22.0
529.0,25.0,-37.0,1.0,-136.0,41.0,-116.0,11.0
-19.0,-36.0,-32.0,-3.0,-105.0,48.0,-132.0,33.0
-547.0,-2.0,-67.0,-2.0,-80.0,68.0,-56.0,34.0
-761.0,11.0,-210.0,-24.0,-93.0,61.0,28.0,31.0
-1019.0,9.0,-425.0,-49.0,-129.0,70.0,105.0,27.0
-775.0,-2.0,-519.0,-68.0,-246.0,95.0,126.0,47.0
-144.0,-19.0,-422.0,-59.0,-295.0,101.0,33.0,33.0
157.0,17.0,-111.0,-24.0,-242.0,110.0,-14.0,26.0
564.0,20.0,203.0,-35.0,-227.0,123.0,-26.0,33.0
699.0,-4.0,374.0,-9.0,-263.0,144.0,16.0,49.0
495.0,-53.0,408.0,-25.0,-288.0,137.0,42.0,46.0
176.0,-24.0,321.0,-37.0,-229.0,207.0,29.0,41.0
-21.0,-5.0,256.0,-31.0,-225.0,221.0,34.0,39.0
-48.0,-38.0,179.0,-71.0,-247.0,205.0,22.0,28.0
-40.0,-56.0,170.0,-12.0,-356.0,209.0,90.0,51.0
-343.0,-49.0,107.0,-44.0,-476.0,152.0,133.0,56.0
-698.0,-26.0,-23.0,-75.0,-465.0,141.0,143.0,40.0
-416.0,-35.0,-79.0,-1.0,-418.0,170.0,103.0,39.0
-227.0,-56.0,-125.0,-15.0,-338.0,170.0,39.0,40.0
24.0,-34.0,-94.0,28.0,-248.0,152.0,-17.0,47.0
316.0,-25.0,-60.0,3.0,-67.0,172.0,7.0,40.0
462.0,-4.0,24.0,-19.0,-47.0,133.0,56.0,67.0
275.0,31.0,99.0,43.0,-103.0,84.0,18.0,66.0
-323.0,12.0,131.0,51.0,-125.0,25.0,-39.0,44.0
-563.0,12.0,126.0,2.0,-143.0,23.0,-137.0,49.0
-386.0,10.0,57.0,-22.0,-111.0,85.0,-138.0,47.0
-201.0,30.0,16.0,16.0,-222.0,83.0,-124.0,50.0
-191.0,69.0,-50.0,-13.0,-360.0,67.0,-107.0,25.0
-502.0,87.0,-46.0,-41.0,-321.0,36.0,0.0,5.0
-979.0,79.0,-11.0,-45.0,-182.0,62.0,70.0,-10.0
-710.0,86.0,-24.0,-37.0,-144.0,67.0,88.0,23.0
-250.0,70.0,-24.0,4.0,-152.0,113.0,104.0,26.0
226.0,15.0,-25.0,-6.0,-170.0,92.0,71.0,13.0
725.0,-21.0,9.0,-49.0,-170.0,59.0,24.0,33.0
929.0,1.0,2.0,-16.0,-180.0,91.0,34.0,15.0
1156.0,3.0,-67.0,-6.0,-225.0,78.0,23.0,19.0
914.0,-29.0,-67.0,-15.0,-241.0,134.0,9.0,12.0
530.0,-5.0,-57.0,-4.0,-222.0,102.0,-39.0,12.0
334.0,-11.0,-69.0,-30.0,-162.0,73.0,-142.0,36.0
465.0,-42.0,-73.0,-19.0,-103.0,86.0,-110.0,62.0
275.0,-43.0,-57.0,-20.0,-95.0,24.0,-73.0,53.0
-14.0,-12.0,-57.0,-26.0,-127.0,8.0,-2.0,44.0
-121.0,-23.0,-39.0,-17.0,-125.0,13.0,110.0,44.0
-374.0,-46.0,-26.0,-24.0,-152.0,-19.0,113.0,-7.0
-441.0,-86.0,-21.0,-21.0,-152.0,-46.0,124.0,-63.0
-649.0,-109.0,21.0,-33.0,-131.0,-50.0,126.0,-27.0
-702.0,-48.0,63.0,-34.0,-118.0,-55.0,78.0,-22.0
-756.0,-15.0,53.0,-28.0,-90.0,-83.0,9.0,-46.0
-634.0,2.0,-11.0,-33.0,-70.0,-80.0,-42.0,-10.0
-367.0,44.0,11.0,-31.0,-53.0,-83.0,-98.0,-13.0
-250.0,82.0,30.0,-23.0,-44.0,-74.0,-102.0,20.0
-203.0,65.0,7.0,-11.0,-37.0,-33.0,-72.0,22.0
-367.0,38.0,28.0,3.0,-103.0,-27.0,-23.0,20.0
-161.0,68.0,3.0,-20.0,-176.0,-31.0,47.0,-4.0
118.0,90.0,12.0,-6.0,-140.0,-11.0,89.0,16.0
416.0,73.0,5.0,-26.0,-160.0,-24.0,83.0,53.0
621.0,-2.0,-46.0,-44.0,-94.0,-6.0,38.0,10.0
528.0,-36.0,-102.0,-18.0,34.0,69.0,16.0,6.0
447.0,-26.0,-114.0,-37.0,39.0,58.0,-49.0,-21.0
266.0,-54.0,-63.0,-15.0,99.0,49.0,-47.0,-22.0
111.0,-59.0,-41.0,-14.0,80.0,27.0,-41.0,-42.0
-95.0,-43.0,-7.0,-63.0,45.0,-44.0,-83.0,-65.0
-157.0,-51.0,12.0,-64.0,71.0,-42.0,-61.0,-49.0
-67.0,-16.0,33.0,-21.0,86.0,22.0,-25.0,-22.0
36.0,4.0,13.0,-19.0,31.0,-35.0,11.0,-19.0
-1.0,28.0,-13.0,-51.0,28.0,-40.0,1.0,-22.0
-69.0,57.0,41.0,-23.0,43.0,13.0,-12.0,-1.0
-122.0,27.0,43.0,-3.0,-4.0,34.0,1.0,5.0
-513.0,-1.0,12.0,-7.0,5.0,49.0,-20.0,-5.0
-641.0,-40.0,-11.0,-4.0,-3.0,13.0,17.0,-5.0
-283.0,-21.0,-12.0,-28.0,33.0,-1.0,54.0,-7.0
40.0,-4.0,-32.0,-10.0,86.0,-3.0,78.0,5.0
435.0,13.0,-36.0,6.0,22.0,56.0,112.0,28.0
738.0,40.0,-13.0,18.0,-51.0,85.0,56.0,46.0
755.0,46.0,-8.0,13.0,-30.0,64.0,-13.0,30.0
586.0,43.0,-1.0,11.0,-30.0,30.0,-78.0,47.0
285.0,23.0,3.0,22.0,45.0,40.0,-98.0,40.0
53.0,58.0,27.0,-7.0,63.0,48.0,-71.0,6.0
-97.0,40.0,-15.0,-13.0,106.0,20.0,-42.0,21.0
-245.0,12.0,-5.0,-10.0,130.0,24.0,27.0,23.0
-331.0,36.0,18.0,2.0,60.0,3.0,40.0,15.0
-238.0,1.0,20.0,-14.0,27.0,-37.0,44.0,13.0
-205.0,-34.0,42.0,-14.0,-44.0,-69.0,62.0,2.0
-152.0,-26.0,8.0,5.0,50.0,-46.0,86.0,-19.0
-123.0,-4.0,-12.0,-14.0,153.0,-33.0,123.0,-29.0
-197.0,4.0,-28.0,-6.0,208.0,-53.0,137.0,5.0
-138.0,0.0,-38.0,13.0,234.0,-42.0,127.0,22.0
32.0,8.0,-32.0,22.0,222.0,-83.0,109.0,22.0
248.0,7.0,9.0,19.0,184.0,-113.0,119.0,-2.0
373.0,-12.0,17.0,18.0,134.0,-92.0,120.0,-14.0
451.0,-31.0,1.0,10.0,135.0,-58.0,123.0,-19.0
334.0,-16.0,24.0,16.0,264.0,1.0,124.0,-3.0
96.0,4.0,46.0,13.0,406.0,51.0,76.0,23.0
-94.0,-8.0,-12.0,4.0,358.0,24.0,3.0,20.0
-302.0,-23.0,-44.0,-14.0,325.0,-6.0,20.0,0.0
-382.0,-1.0,-22.0,-43.0,328.0,15.0,29.0,2.0
-351.0,37.0,-32.0,-50.0,348.0,0.0,17.0,21.0
-681.0,47.0,3.0,-76.0,279.0,-1.0,-4.0,-1.0
-1233.0,37.0,18.0,-66.0,122.0,-49.0,-22.0,0.0
-1027.0,45.0,53.0,-53.0,30.0,-58.0,-41.0,18.0
-201.0,41.0,89.0,-34.0,41.0,-45.0,-93.0,13.0
292.0,18.0,124.0,-6.0,50.0,-32.0,-51.0,26.0
492.0,-18.0,166.0,-8.0,21.0,18.0,-47.0,27.0
929.0,-40.0,142.0,12.0,106.0,57.0,-47.0,3.0
1221.0,-23.0,136.0,-19.0,241.0,132.0,-51.0,-17.0
1130.0,-17.0,92.0,-4.0,229.0,105.0,-55.0,2.0
976.0,13.0,24.0,-24.0,112.0,56.0,14.0,32.0
701.0,46.0,-13.0,-64.0,104.0,89.0,54.0,7.0
538.0,64.0,-41.0,-33.0,99.0,93.0,63.0,5.0
198.0,48.0,-111.0,-33.0,85.0,61.0,64.0,35.0
-248.0,8.0,-181.0,-30.0,109.0,78.0,82.0,35.0
-584.0,7.0,-148.0,-51.0,122.0,113.0,103.0,24.0
-807.0,-12.0,-210.0,-38.0,73.0,106.0,82.0,16.0
-807.0,-28.0,-91.0,-6.0,-23.0,100.0,6.0,1.0
-664.0,29.0,-19.0,28.0,-23.0,167.0,-8.0,13.0
-493.0,52.0,-69.0,6.0,-9.0,216.0,6.0,18.0
-366.0,41.0,-4.0,-50.0,4.0,153.0,-1.0,5.0
-237.0,9.0,-45.0,0.0,70.0,166.0,-16.0,36.0
-118.0,-5.0,27.0,18.0,88.0,168.0,-31.0,29.0
-51.0,28.0,37.0,-14.0,82.0,137.0,-32.0,19.0
-250.0,25.0,27.0,-24.0,77.0,119.0,-33.0,18.0
-437.0,-19.0,95.0,2.0,112.0,136.0,-12.0,-13.0
-221.0,-41.0,73.0,0.0,171.0,131.0,9.0,4.0
97.0,-36.0,5.0,-23.0,159.0,97.0,-9.0,-15.0
460.0,-51.0,-52.0,-26.0,125.0,62.0,-10.0,-22.0
844.0,-50.0,15.0,-30.0,148.0,34.0,22.0,3.0
912.0,-49.0,0.0,-14.0,151.0,53.0,30.0,23.0
713.0,-23.0,-20.0,1.0,212.0,82.0,67.0,44.0
197.0,-1.0,-41.0,12.0,330.0,165.0,80.0,35.0
-232.0,-3.0,-91.0,12.0,392.0,178.0,61.0,11.0
-331.0,-8.0,-76.0,25.0,440.0,145.0,53.0,6.0
-323.0,3.0,-55.0,38.0,450.0,113.0,74.0,42.0
-258.0,27.0,11.0,55.0,427.0,78.0,63.0,78.0
-232.0,-18.0,5.0,37.0,471.0,79.0,47.0,99.0
-182.0,-46.0,-17.0,11.0,469.0,65.0,67.0,117.0
-156.0,26.0,-45.0,-8.0,440.0,21.0,47.0,125.0
-147.0,46.0,-57.0,6.0,440.0,-48.0,61.0,119.0
-93.0,39.0,-49.0,12.0,397.0,-55.0,81.0,92.0
-8.0,40.0,-50.0,-42.0,503.0,-26.0,64.0,42.0
-10.0,47.0,-36.0,-26.0,621.0,8.0,54.0,54.0
12.0,66.0,-2.0,-8.0,589.0,21.0,64.0,65.0
135.0,40.0,43.0,-3.0,576.0,-17.0,50.0,46.0
58.0,60.0,47.0,-6.0,468.0,-63.0,23.0,48.0
-28.0,34.0,39.0,-32.0,367.0,-86.0,28.0,34.0
-17.0,-10.0,60.0,-21.0,220.0,-95.0,30.0,58.0
-4.0,15.0,89.0,-19.0,111.0,-122.0,47.0,54.0
-71.0,-7.0,52.0,-25.0,122.0,-144.0,64.0,13.0
-170.0,7.0,63.0,-34.0,39.0,-137.0,33.0,-2.0
-172.0,17.0,30.0,-30.0,-51.0,-157.0,31.0,-22.0
-5.0,5.0,-19.0,-56.0,-40.0,-147.0,12.0,-19.0
104.0,-22.0,33.0,-30.0,56.0,-91.0,24.0,5.0
86.0,-62.0,42.0,-12.0,111.0,-69.0,34.0,16.0
50.0,-44.0,31.0,-30.0,-4.0,-91.0,20.0,14.0
-75.0,-28.0,42.0,-52.0,-47.0,-149.0,-6.0,-33.0
-71.0,-26.0,42.0,-38.0,-53.0,-167.0,-35.0,-25.0
-67.0,-43.0,13.0,-22.0,-183.0,-175.0,-3.0,-17.0
-10.0,-26.0,-42.0,-37.0,-315.0,-208.0,-18.0,-29.0
101.0,-1.0,-74.0,-33.0,-425.0,-169.0,-43.0,-45.0
106.0,-12.0,-88.0,-46.0,-413.0,-128.0,-44.0,-35.0
144.0,-12.0,-73.0,-45.0,-364.0,-113.0,-29.0,13.0
69.0,-16.0,-23.0,-48.0,-291.0,-92.0,-12.0,6.0
-21.0,-10.0,-27.0,-52.0,-328.0,-128.0,-23.0,6.0
42.0,-1.0,-8.0,-49.0,-460.0,-179.0,-15.0,-4.0
23.0,5.0,-15.0,-36.0,-521.0,-162.0,-10.0,-6.0
-49.0,-1.0,11.0,-36.0,-549.0,-169.0,-13.0,2.0
-85.0,-1.0,92.0,-31.0,-476.0,-175.0,16.0,16.0
-156.0,12.0,83.0,-19.0,-478.0,-157.0,17.0,-9.0
-120.0,-1.0,64.0,-10.0,-482.0,-106.0,9.0,-23.0
-86.0,3.0,38.0,8.0,-473.0,-75.0,63.0,-1.0
-36.0,-7.0,-14.0,-8.0,-486.0,-94.0,70.0,4.0
29.0,-7.0,-49.0,-13.0,-502.0,-64.0,50.0,27.0
74.0,33.0,-72.0,15.0,-490.0,0.0,101.0,38.0
-75.0,23.0,-75.0,37.0,-453.0,-7.0,112.0,48.0
-506.0,40.0,-57.0,30.0,-473.0,-42.0,82.0,28.0
-523.0,55.0,-48.0,32.0,-481.0,-45.0,37.0,15.0
-185.0,43.0,-55.0,8.0,-484.0,-66.0,33.0,26.0
142.0,15.0,-40.0,19.0,-449.0,-56.0,53.0,29.0
538.0,36.0,4.0,39.0,-374.0,-4.0,29.0,31.0
733.0,44.0,-20.0,-4.0,-356.0,15.0,25.0,19.0
733.0,28.0,-42.0,2.0,-354.0,15.0,47.0,33.0
568.0,31.0,11.0,13.0,-299.0,28.0,42.0,34.0
260.0,-10.0,93.0,8.0,-181.0,73.0,71.0,34.0
42.0,14.0,148.0,38.0,-170.0,78.0,76.0,22.0
-140.0,30.0,158.0,12.0,-174.0,35.0,54.0,11.0
-302.0,11.0,179.0,-10.0,-103.0,39.0,82.0,20.0
-360.0,13.0,193.0,3.0,-114.0,40.0,67.0,7.0
-307.0,29.0,158.0,0.0,-85.0,25.0,28.0,5.0
-223.0,9.0,47.0,-20.0,-102.0,3.0,38.0,-8.0
-104.0,-4.0,-19.0,-40.0,-50.0,-24.0,29.0,-2.0
-81.0,-15.0,-41.0,1.0,1.0,-15.0,10.0,21.0
-13.0,-72.0,-36.0,5.0,-9.0,12.0,9.0,-13.0
53.0,-82.0,-82.0,-23.0,-25.0,16.0,12.0,3.0
-29.0,-55.0,-133.0,-13.0,14.0,23.0,42.0,18.0
-40.0,-48.0,-142.0,-25.0,104.0,8.0,18.0,-28.0
-100.0,-53.0,-149.0,-22.0,140.0,-1.0,-3.0,-11.0
-165.0,-39.0,-155.0,-25.0,180.0,37.0,1.0,-3.0
-151.0,-33.0,-165.0,-19.0,133.0,59.0,-26.0,2.0
-127.0,-31.0,-178.0,-40.0,144.0,66.0,-11.0,9.0
-128.0,0.0,-185.0,-30.0,140.0,66.0,-9.0,-26.0
-75.0,14.0,-104.0,-12.0,15.0,43.0,10.0,15.0
-59.0,-8.0,-69.0,-49.0,-53.0,58.0,-11.0,25.0
-124.0,4.0,-13.0,-29.0,143.0,81.0,-12.0,13.0
-99.0,44.0,5.0,-20.0,355.0,122.0,6.0,27.0
-79.0,60.0,24.0,-29.0,424.0,180.0,3.0,16.0
-88.0,83.0,92.0,-22.0,403.0,156.0,15.0,31.0
-98.0,70.0,99.0,-42.0,402.0,176.0,-6.0,9.0
-47.0,45.0,72.0,-27.0,480.0,229.0,11.0,21.0
26.0,64.0,36.0,6.0,406.0,211.0,-6.0,50.0
66.0,62.0,40.0,30.0,419.0,201.0,-5.0,29.0
74.0,25.0,-34.0,15.0,468.0,203.0,40.0,35.0
131.0,27.0,-114.0,-9.0,375.0,185.0,15.0,64.0
250.0,31.0,-125.0,0.0,245.0,166.0,35.0,45.0
202.0,19.0,-112.0,-21.0,207.0,172.0,27.0,14.0
107.0,2.0,-110.0,-37.0,300.0,208.0,19.0,32.0
14.0,-11.0,-85.0,12.0,373.0,223.0,50.0,67.0
43.0,-11.0,45.0,53.0,428.0,203.0,69.0,33.0
-7.0,4.0,47.0,-13.0,476.0,137.0,46.0,33.0
-278.0,-2.0,15.0,-47.0,432.0,84.0,28.0,63.0
-470.0,-27.0,86.0,-44.0,355.0,57.0,35.0,18.0
-453.0,-31.0,122.0,-37.0,281.0,46.0,-6.0,33.0
-131.0,-34.0,193.0,-20.0,212.0,25.0,-2.0,30.0
187.0,-22.0,253.0,-12.0,242.0,-28.0,27.0,-3.0
477.0,-28.0,175.0,-28.0,290.0,16.0,21.0,16.0
627.0,-18.0,142.0,-19.0,283.0,31.0,10.0,-1.0
521.0,-12.0,125.0,-9.0,208.0,-16.0,9.0,-15.0
328.0,-55.0,89.0,-49.0,164.0,-36.0,3.0,-14.0
119.0,-63.0,54.0,-83.0,169.0,21.0,16.0,-20.0
73.0,-6.0,-41.0,-74.0,209.0,105.0,35.0,-7.0
-22.0,-18.0,-112.0,-44.0,248.0,132.0,19.0,-14.0
-86.0,-24.0,-193.0,-65.0,224.0,49.0,9.0,-29.0
-144.0,-2.0,-215.0,-66.0,187.0,-29.0,1.0,-5.0
-212.0,-23.0,-182.0,-69.0,154.0,-20.0,15.0,13.0
-201.0,-7.0,-198.0,-49.0,148.0,-48.0,29.0,21.0
-388.0,-42.0,-216.0,-51.0,132.0,-67.0,-30.0,14.0
-998.0,-23.0,-259.0,-56.0,0.0,-63.0,-39.0,1.0
-1130.0,27.0,-209.0,-31.0,-110.0,-76.0,-23.0,-3.0
-506.0,18.0,-82.0,-20.0,21.0,-61.0,-30.0,-19.0
-33.0,44.0,59.0,19.0,166.0,17.0,-16.0,-6.0
457.0,68.0,198.0,26.0,196.0,19.0,-8.0,29.0
790.0,30.0,202.0,15.0,153.0,-26.0,-4.0,13.0
979.0,5.0,136.0,-34.0,23.0,-51.0,0.0,-3.0
888.0,-110.0,65.0,-69.0,-11.0,-9.0,22.0,31.0
550.0,-253.0,-3.0,-29.0,12.0,29.0,14.0,46.0
406.0,-133.0,28.0,-38.0,-4.0,69.0,28.0,38.0
306.0,74.0,-91.0,-81.0,-27.0,71.0,6.0,41.0
122.0,91.0,-232.0,-42.0,47.0,93.0,43.0,72.0
-357.0,98.0,-149.0,22.0,140.0,140.0,40.0,58.0
-560.0,105.0,-106.0,36.0,77.0,64.0,-27.0,43.0
-457.0,73.0,-204.0,61.0,41.0,79.0,30.0,58.0
-407.0,78.0,-617.0,50.0,37.0,90.0,4.0,33.0
-148.0,43.0,-898.0,10.0,102.0,111.0,1.0,47.0
180.0,55.0,-442.0,23.0,167.0,94.0,31.0,56.0
314.0,52.0,170.0,37.0,200.0,96.0,15.0,19.0
263.0,18.0,567.0,26.0,114.0,83.0,16.0,12.0
-5.0,6.0,931.0,22.0,28.0,6.0,29.0,19.0
-318.0,-1.0,891.0,-30.0,70.0,30.0,24.0,11.0
-294.0,-15.0,642.0,-28.0,102.0,-8.0,31.0,27.0
-75.0,-49.0,430.0,2.0,182.0,44.0,29.0,13.0
-6.0,-73.0,150.0,-36.0,106.0,39.0,10.0,-18.0
67.0,-89.0,30.0,-61.0,42.0,-16.0,22.0,-14.0
34.0,-55.0,-54.0,-51.0,-5.0,-25.0,13.0,-15.0
-35.0,-27.0,-115.0,-89.0,-80.0,-45.0,45.0,-3.0
-40.0,-7.0,-247.0,-89.0,-103.0,12.0,40.0,3.0
-158.0,16.0,-328.0,-19.0,-214.0,-14.0,26.0,31.0
-107.0,-10.0,-219.0,-8.0,-262.0,0.0,43.0,34.0
-35.0,19.0,-123.0,-18.0,-267.0,38.0,61.0,17.0
-185.0,26.0,-57.0,0.0,-273.0,40.0,97.0,-9.0
-388.0,4.0,-64.0,12.0,-174.0,67.0,88.0,-16.0
-493.0,56.0,-70.0,16.0,-85.0,103.0,78.0,26.0
-691.0,106.0,-23.0,13.0,-140.0,61.0,96.0,47.0
-850.0,103.0,-28.0,22.0,-225.0,21.0,66.0,68.0
-746.0,110.0,-47.0,10.0,-288.0,84.0,49.0,47.0
-518.0,82.0,-50.0,8.0,-335.0,62.0,48.0,49.0
122.0,65.0,-53.0,11.0,-413.0,42.0,36.0,49.0
1051.0,65.0,31.0,0.0,-425.0,69.0,49.0,47.0
1515.0,-89.0,70.0,-5.0,-291.0,107.0,42.0,54.0
1506.0,-188.0,83.0,1.0,-136.0,115.0,33.0,58.0
1384.0,-49.0,150.0,55.0,-119.0,101.0,64.0,74.0
1116.0,63.0,154.0,42.0,-135.0,148.0,68.0,59.0
586.0,30.0,120.0,5.0,-170.0,135.0,32.0,53.0
187.0,91.0,95.0,10.0,-227.0,89.0,33.0,41.0
-146.0,98.0,99.0,26.0,-259.0,95.0,25.0,13.0
-413.0,113.0,57.0,18.0,-374.0,46.0,21.0,15.0
-618.0,106.0,65.0,31.0,-360.0,32.0,31.0,24.0
-746.0,70.0,40.0,18.0,-374.0,25.0,30.0,30.0
-649.0,117.0,-3.0,-7.0,-425.0,31.0,36.0,33.0
-706.0,20.0,-16.0,13.0,-419.0,40.0,16.0,25.0
-1001.0,-48.0,-75.0,-21.0,-421.0,13.0,-12.0,15.0
-974.0,-94.0,-79.0,-28.0,-443.0,47.0,12.0,-3.0
-535.0,-44.0,-73.0,-29.0,-507.0,54.0,14.0,-2.0
-178.0,-22.0,-77.0,-26.0,-549.0,67.0,-32.0,-11.0
250.0,-28.0,-67.0,-34.0,-621.0,45.0,0.0,14.0
504.0,-4.0,-28.0,-19.0,-600.0,-8.0,-10.0,2.0
530.0,-39.0,-38.0,-25.0,-494.0,-1.0,-30.0,-42.0
412.0,-47.0,-91.0,-36.0,-437.0,29.0,10.0,-34.0
204.0,-50.0,-99.0,-36.0,-468.0,30.0,4.0,-47.0
92.0,-22.0,-107.0,-76.0,-483.0,48.0,1.0,-30.0
-33.0,5.0,-93.0,-45.0,-442.0,54.0,-27.0,-64.0
-14.0,21.0,-89.0,-71.0,-469.0,68.0,-35.0,-25.0
-56.0,4.0,-84.0,-65.0,-356.0,81.0,-24.0,2.0
-123.0,19.0,-146.0,-44.0,-246.0,56.0,-20.0,-36.0
-127.0,-25.0,-145.0,-32.0,-242.0,53.0,-6.0,-27.0
-78.0,-52.0,-70.0,-24.0,-234.0,22.0,-2.0,-31.0
-29.0,-3.0,-59.0,-41.0,-196.0,30.0,-19.0,-13.0
-5.0,-50.0,-16.0,-28.0,-176.0,28.0,16.0,-13.0
36.0,-75.0,23.0,-38.0,-160.0,-32.0,41.0,-24.0
40.0,-65.0,46.0,-28.0,-181.0,-16.0,17.0,0.0
73.0,-47.0,88.0,-16.0,-242.0,37.0,5.0,21.0
55.0,-15.0,148.0,8.0,-187.0,77.0,9.0,5.0
50.0,-21.0,115.0,10.0,-17.0,154.0,47.0,18.0
15.0,11.0,138.0,-3.0,237.0,210.0,73.0,47.0
20.0,15.0,169.0,9.0,375.0,205.0,97.0,55.0
43.0,39.0,114.0,13.0,353.0,145.0,68.0,38.0
-2.0,44.0,122.0,4.0,233.0,91.0,47.0,36.0
-72.0,33.0,107.0,16.0,155.0,72.0,53.0,46.0
-145.0,8.0,62.0,-8.0,114.0,34.0,67.0,29.0
-125.0,16.0,-4.0,-48.0,76.0,50.0,40.0,34.0
-47.0,19.0,-44.0,-48.0,114.0,68.0,31.0,33.0
-5.0,-6.0,15.0,-23.0,24.0,64.0,61.0,26.0
22.0,-6.0,53.0,6.0,-1.0,33.0,37.0,44.0
105.0,-42.0,-6.0,-16.0,150.0,33.0,51.0,46.0
65.0,-16.0,19.0,-9.0,325.0,39.0,73.0,43.0
50.0,-32.0,6.0,-50.0,526.0,22.0,42.0,23.0
34.0,-23.0,-68.0,-78.0,664.0,57.0,19.0,19.0
2.0,-18.0,-94.0,-46.0,686.0,21.0,46.0,25.0
56.0,-21.0,-168.0,-54.0,601.0,-24.0,33.0,3.0
8.0,-8.0,-174.0,-69.0,526.0,-68.0,27.0,-13.0
-32.0,-10.0,-102.0,-74.0,553.0,-102.0,25.0,-17.0
-120.0,0.0,-157.0,-76.0,569.0,-91.0,-8.0,-31.0
-381.0,-9.0,-183.0,-61.0,672.0,-24.0,19.0,-11.0
-907.0,-5.0,-145.0,-32.0,784.0,6.0,25.0,-10.0
-1152.0,21.0,-216.0,-40.0,706.0,-91.0,50.0,6.0
-909.0,43.0,-234.0,-59.0,607.0,-118.0,36.0,19.0
-439.0,64.0,-164.0,-16.0,562.0,-120.0,22.0,9.0
627.0,40.0,-124.0,-11.0,471.0,-101.0,25.0,6.0
1421.0,34.0,-99.0,15.0,375.0,-157.0,18.0,-11.0
1763.0,31.0,-20.0,15.0,218.0,-184.0,14.0,-14.0
1701.0,-4.0,21.0,-13.0,108.0,-104.0,-1.0,3.0
1091.0,5.0,105.0,-8.0,267.0,-109.0,-17.0,-13.0
660.0,-20.0,185.0,5.0,340.0,-56.0,7.0,-7.0
162.0,25.0,241.0,27.0,415.0,-51.0,9.0,32.0
-206.0,81.0,171.0,20.0,426.0,-89.0,-3.0,49.0
-388.0,95.0,60.0,27.0,385.0,-57.0,40.0,94.0
-620.0,87.0,60.0,15.0,426.0,-87.0,17.0,79.0
-936.0,-12.0,67.0,11.0,383.0,-139.0,0.0,46.0
-1213.0,-4.0,98.0,16.0,340.0,-124.0,-2.0,27.0
-850.0,-1.0,158.0,10.0,261.0,-58.0,-19.0,18.0
-407.0,-1.0,179.0,36.0,279.0,-35.0,-8.0,47.0
97.0,9.0,76.0,47.0,253.0,-24.0,6.0,23.0
758.0,-35.0,9.0,50.0,184.0,-33.0,0.0,28.0
1020.0,-12.0,-23.0,15.0,76.0,-74.0,2.0,34.0
929.0,-38.0,-45.0,9.0,-25.0,-63.0,18.0,32.0
456.0,-26.0,-41.0,8.0,113.0,-74.0,1.0,49.0
95.0,-24.0,-74.0,4.0,154.0,-78.0,-19.0,30.0
-209.0,0.0,-57.0,22.0,55.0,-72.0,-51.0,30.0
-490.0,34.0,-59.0,12.0,21.0,-81.0,-60.0,26.0
-589.0,47.0,-62.0,-5.0,72.0,-84.0,-58.0,19.0
-710.0,98.0,-97.0,-14.0,154.0,-65.0,-7.0,10.0
-599.0,51.0,-85.0,-20.0,147.0,-46.0,85.0,16.0
-510.0,12.0,-41.0,-4.0,63.0,-72.0,90.0,5.0
-453.0,5.0,-10.0,-26.0,-67.0,-98.0,113.0,-9.0
-388.0,1.0,14.0,-32.0,-105.0,-127.0,105.0,7.0
-317.0,8.0,-34.0,-15.0,-40.0,-85.0,83.0,2.0
-467.0,-20.0,-12.0,-32.0,-38.0,-64.0,106.0,3.0
-1019.0,-24.0,24.0,-29.0,-191.0,-102.0,62.0,-21.0
-1227.0,-33.0,24.0,-38.0,-342.0,-81.0,70.0,2.0
-571.0,-36.0,71.0,-21.0,-319.0,-33.0,65.0,16.0
220.0,-34.0,45.0,-6.0,-156.0,-17.0,23.0,16.0
914.0,-69.0,-12.0,1.0,16.0,-3.0,53.0,33.0
1420.0,-23.0,-21.0,7.0,82.0,2.0,74.0,46.0
1433.0,-3.0,-44.0,2.0,69.0,2.0,72.0,35.0
1169.0,-26.0,-41.0,-5.0,157.0,17.0,94.0,43.0
699.0,-3.0,-33.0,-6.0,198.0,39.0,81.0,82.0
353.0,-14.0,-24.0,-14.0,187.0,49.0,43.0,64.0
137.0,25.0,14.0,-23.0,135.0,74.0,59.0,76.0
27.0,81.0,26.0,-8.0,1.0,79.0,78.0,59.0
-42.0,124.0,85.0,10.0,5.0,83.0,79.0,33.0
-84.0,131.0,126.0,7.0,38.0,84.0,19.0,52.0
-183.0,60.0,105.0,-11.0,-13.0,50.0,53.0,51.0
-218.0,58.0,56.0,4.0,32.0,75.0,73.0,47.0
-186.0,8.0,31.0,-17.0,119.0,103.0,43.0,38.0
-195.0,-40.0,47.0,-26.0,65.0,98.0,109.0,38.0
-116.0,-27.0,52.0,-1.0,-99.0,102.0,97.0,29.0
-71.0,-30.0,69.0,-9.0,-196.0,111.0,84.0,11.0
-31.0,14.0,64.0,-9.0,-136.0,135.0,47.0,-9.0
-92.0,4.0,79.0,30.0,-11.0,162.0,44.0,14.0
-127.0,-29.0,95.0,35.0,17.0,137.0,32.0,25.0
-119.0,-43.0,50.0,-9.0,22.0,110.0,3.0,9.0
-172.0,-38.0,3.0,-45.0,21.0,74.0,19.0,-4.0
-117.0,-14.0,-60.0,-50.0,-125.0,50.0,27.0,-20.0
-72.0,-12.0,-154.0,-60.0,-176.0,73.0,43.0,-17.0
-32.0,-27.0,-302.0,-95.0,-118.0,64.0,21.0,-15.0
-27.0,-37.0,-306.0,-61.0,-82.0,81.0,-17.0,0.0
-65.0,-58.0,-255.0,-41.0,-76.0,91.0,-59.0,31.0
-44.0,-50.0,-183.0,-33.0,-130.0,90.0,-24.0,-3.0
-28.0,-17.0,-85.0,-13.0,-168.0,74.0,12.0,-6.0
5.0,-44.0,-123.0,-25.0,-87.0,71.0,-30.0,0.0
14.0,-34.0,-46.0,-55.0,-79.0,81.0,-42.0,7.0
16.0,-30.0,60.0,-53.0,-252.0,97.0,-51.0,15.0
19.0,-42.0,69.0,-20.0,-164.0,152.0,-43.0,3.0
-79.0,-33.0,40.0,-4.0,36.0,180.0,-63.0,16.0
-207.0,-38.0,115.0,7.0,37.0,172.0,-55.0,3.0
-124.0,-26.0,133.0,-5.0,47.0,94.0,-2.0,3.0
56.0,-11.0,15.0,-39.0,80.0,61.0,-12.0,12.0
155.0,29.0,-20.0,-44.0,37.0,90.0,22.0,19.0
166.0,27.0,-20.0,-10.0,-79.0,48.0,-14.0,21.0
120.0,12.0,34.0,-3.0,-168.0,62.0,-35.0,27.0
109.0,26.0,93.0,-3.0,-250.0,76.0,2.0,0.0
82.0,34.0,59.0,-17.0,-167.0,58.0,-4.0,4.0
28.0,27.0,8.0,-33.0,-41.0,78.0,5.0,1.0
8.0,19.0,12.0,-44.0,-20.0,56.0,4.0,-9.0
-2.0,60.0,67.0,-28.0,98.0,39.0,5.0,-3.0
-11.0,47.0,93.0,-10.0,146.0,43.0,-9.0,-5.0
-55.0,-1.0,106.0,-18.0,23.0,-2.0,-42.0,-2.0
-169.0,-20.0,83.0,-24.0,-118.0,-29.0,-16.0,-5.0
-195.0,-8.0,19.0,-14.0,-163.0,16.0,5.0,2.0
-99.0,15.0,35.0,-6.0,-183.0,-10.0,-3.0,8.0
-32.0,37.0,66.0,0.0,-199.0,5.0,29.0,-3.0
30.0,28.0,66.0,-26.0,-172.0,6.0,69.0,-5.0
17.0,5.0,150.0,-9.0,-225.0,-17.0,46.0,9.0
-53.0,7.0,194.0,2.0,-272.0,17.0,-11.0,5.0
10.0,31.0,138.0,-28.0,-241.0,51.0,28.0,-13.0
33.0,28.0,38.0,-9.0,-227.0,71.0,48.0,14.0
60.0,-5.0,-11.0,-16.0,-189.0,113.0,42.0,56.0
93.0,5.0,-73.0,-18.0,-132.0,167.0,0.0,17.0
61.0,27.0,-161.0,-16.0,-160.0,97.0,-27.0,27.0
65.0,36.0,-146.0,-33.0,-214.0,70.0,-19.0,31.0
18.0,22.0,-114.0,-16.0,-186.0,75.0,-25.0,16.0
-16.0,25.0,-101.0,-26.0,-83.0,66.0,3.0,19.0
1.0,15.0,-122.0,-36.0,-144.0,54.0,-46.0,1.0
23.0,5.0,-122.0,-9.0,-299.0,46.0,-61.0,37.0
35.0,24.0,-90.0,25.0,-360.0,71.0,-25.0,30.0
31.0,35.0,-60.0,3.0,-425.0,50.0,-38.0,34.0
24.0,20.0,-42.0,-7.0,-443.0,7.0,2.0,18.0
21.0,23.0,-37.0,2.0,-374.0,-22.0,10.0,36.0
30.0,49.0,-24.0,10.0,-360.0,-22.0,-16.0,50.0
-15.0,12.0,-40.0,-5.0,-324.0,-10.0,26.0,16.0
-71.0,9.0,-45.0,-8.0,-229.0,-8.0,47.0,36.0
-67.0,-5.0,-52.0,-1.0,-205.0,9.0,83.0,33.0
-10.0,-62.0,-52.0,-13.0,-214.0,44.0,78.0,40.0
86.0,-87.0,-68.0,-19.0,-242.0,37.0,69.0,16.0
20.0,-93.0,-99.0,-20.0,-252.0,47.0,119.0,17.0
42.0,-74.0,-82.0,-21.0,-209.0,48.0,74.0,27.0
168.0,-66.0,-54.0,-3.0,-212.0,-2.0,44.0,34.0
184.0,-34.0,-22.0,-31.0,-299.0,-16.0,11.0,5.0
243.0,-45.0,-30.0,-57.0,-425.0,-43.0,19.0,-1.0
169.0,-45.0,-43.0,-33.0,-502.0,-64.0,-19.0,18.0
30.0,-35.0,-28.0,-37.0,-348.0,-37.0,-47.0,12.0
-154.0,3.0,23.0,-15.0,-157.0,10.0,-8.0,30.0
-388.0,40.0,96.0,-21.0,-152.0,10.0,-69.0,14.0
-740.0,81.0,89.0,-39.0,-206.0,-38.0,-48.0,9.0
-702.0,151.0,81.0,-27.0,-19.0,82.0,-26.0,24.0
-441.0,117.0,111.0,8.0,258.0,180.0,0.0,35.0
-311.0,152.0,85.0,19.0,314.0,98.0,59.0,33.0
33.0,140.0,13.0,-1.0,348.0,35.0,38.0,2.0
80.0,95.0,-6.0,7.0,275.0,31.0,70.0,14.0
38.0,94.0,6.0,1.0,176.0,17.0,85.0,47.0
44.0,1.0,41.0,7.0,159.0,-28.0,67.0,22.0
12.0,-44.0,47.0,-36.0,249.0,-41.0,46.0,7.0
74.0,-64.0,-31.0,-38.0,293.0,-52.0,149.0,13.0
89.0,-36.0,-63.0,-67.0,233.0,-57.0,160.0,16.0
127.0,-10.0,-155.0,-87.0,258.0,-54.0,16.0,26.0
134.0,-40.0,-183.0,-29.0,358.0,-56.0,26.0,11.0
139.0,-33.0,-129.0,7.0,412.0,-62.0,41.0,-14.0
104.0,-43.0,-81.0,-35.0,426.0,-80.0,17.0,-22.0
78.0,-73.0,-1.0,-76.0,409.0,-91.0,-42.0,8.0
64.0,-37.0,-5.0,-40.0,310.0,-114.0,-70.0,-2.0
80.0,-49.0,9.0,-22.0,198.0,-127.0,-17.0,6.0
42.0,-60.0,27.0,-5.0,101.0,-144.0,-33.0,27.0
40.0,-47.0,92.0,5.0,241.0,-89.0,-55.0,18.0
-43.0,-57.0,114.0,-1.0,432.0,18.0,-20.0,53.0
-360.0,-30.0,113.0,33.0,603.0,33.0,-19.0,47.0
-360.0,-5.0,147.0,35.0,562.0,-48.0,-13.0,20.0
-327.0,-16.0,95.0,2.0,302.0,-48.0,-13.0,16.0
-645.0,-34.0,86.0,0.0,209.0,-14.0,-33.0,-19.0
-627.0,-15.0,38.0,-6.0,334.0,3.0,-89.0,-36.0
-44.0,17.0,26.0,-10.0,562.0,69.0,-80.0,-20.0
503.0,-16.0,63.0,-36.0,618.0,1.0,13.0,-10.0
929.0,-28.0,24.0,-49.0,627.0,-32.0,25.0,17.0
1254.0,-12.0,39.0,-22.0,621.0,-49.0,102.0,33.0
1254.0,-20.0,67.0,11.0,547.0,-72.0,126.0,40.0
994.0,-26.0,72.0,-10.0,406.0,-63.0,123.0,21.0
505.0,-23.0,63.0,-20.0,296.0,-82.0,103.0,17.0
47.0,-13.0,30.0,-54.0,273.0,-72.0,38.0,22.0
-237.0,20.0,-64.0,-79.0,245.0,-54.0,60.0,16.0
-313.0,91.0,-177.0,-21.0,302.0,-39.0,106.0,26.0
-321.0,83.0,-157.0,-14.0,302.0,-38.0,106.0,44.0
-374.0,66.0,-149.0,-17.0,301.0,-24.0,36.0,31.0
-457.0,53.0,-169.0,-61.0,271.0,-58.0,7.0,34.0
-407.0,29.0,-137.0,-7.0,224.0,-45.0,37.0,74.0
-354.0,43.0,-111.0,38.0,218.0,-13.0,45.0,68.0
-280.0,30.0,-99.0,-4.0,137.0,-16.0,88.0,54.0
-161.0,30.0,-71.0,16.0,9.0,7.0,107.0,66.0
-136.0,7.0,-3.0,46.0,-28.0,8.0,38.0,71.0
-89.0,7.0,6.0,41.0,-58.0,20.0,86.0,37.0
-116.0,30.0,8.0,16.0,-142.0,-15.0,84.0,29.0
-93.0,36.0,-15.0,5.0,-248.0,-17.0,-31.0,61.0
-65.0,42.0,-3.0,0.0,-299.0,32.0,-39.0,50.0
-64.0,17.0,12.0,-3.0,-50.0,79.0,-69.0,26.0
-262.0,-5.0,20.0,-14.0,154.0,211.0,-123.0,47.0
-775.0,-18.0,70.0,-10.0,272.0,280.0,6.0,64.0
-737.0,4.0,23.0,-4.0,411.0,207.0,102.0,26.0
-193.0,22.0,-68.0,-27.0,416.0,184.0,12.0,34.0
201.0,-4.0,-82.0,10.0,338.0,151.0,-34.0,53.0
648.0,-28.0,-1.0,7.0,137.0,90.0,67.0,14.0
870.0,-35.0,3.0,10.0,-75.0,35.0,59.0,14.0
854.0,-9.0,-5.0,11.0,-212.0,21.0,28.0,29.0
640.0,15.0,39.0,-29.0,-126.0,98.0,158.0,24.0
325.0,52.0,24.0,-13.0,35.0,110.0,179.0,26.0
74.0,48.0,-9.0,-27.0,126.0,94.0,112.0,35.0
-99.0,7.0,-14.0,-33.0,46.0,115.0,203.0,37.0
-78.0,30.0,40.0,-6.0,-50.0,81.0,328.0,40.0
-140.0,43.0,67.0,-27.0,64.0,90.0,303.0,21.0
-207.0,27.0,89.0,-40.0,137.0,105.0,181.0,12.0
-230.0,27.0,130.0,-16.0,56.0,65.0,88.0,27.0
-238.0,14.0,89.0,-25.0,59.0,74.0,42.0,11.0
-209.0,-2.0,38.0,-52.0,122.0,93.0,-37.0,3.0
-136.0,11.0,2.0,-33.0,182.0,76.0,-45.0,0.0
-90.0,-18.0,-80.0,-34.0,138.0,16.0,-37.0,-6.0
-93.0,-6.0,-167.0,-52.0,-59.0,-25.0,-102.0,-8.0
-85.0,-4.0,-172.0,-46.0,-138.0,-21.0,-61.0,-11.0
-70.0,-26.0,-128.0,-19.0,-157.0,-25.0,-129.0,-12.0
-106.0,-29.0,-89.0,-13.0,-307.0,-55.0,-235.0,-22.0
-238.0,-23.0,-82.0,-16.0,-360.0,-33.0,-132.0,-13.0
-508.0,-19.0,-49.0,-40.0,-306.0,-22.0,-44.0,-34.0
-679.0,-53.0,-17.0,-33.0,-319.0,-51.0,23.0,-28.0
-383.0,-36.0,-34.0,-23.0,-269.0,-35.0,146.0,15.0
-20.0,-26.0,12.0,-48.0,-130.0,-6.0,124.0,-14.0
245.0,-45.0,84.0,-6.0,-50.0,-29.0,-58.0,-16.0
586.0,-59.0,73.0,-5.0,-217.0,-45.0,-151.0,-11.0
660.0,-72.0,126.0,16.0,-299.0,4.0,-95.0,-5.0
603.0,-78.0,139.0,36.0,-139.0,105.0,-32.0,-1.0
452.0,-71.0,40.0,-7.0,-21.0,176.0,10.0,-14.0
202.0,-58.0,-34.0,-13.0,-42.0,40.0,-9.0,17.0
109.0,-45.0,-100.0,1.0,-99.0,9.0,-6.0,41.0
9.0,-10.0,-90.0,9.0,-168.0,6.0,-26.0,35.0
-160.0,6.0,-87.0,-26.0,-270.0,-23.0,-33.0,42.0
-183.0,19.0,56.0,-26.0,-356.0,19.0,39.0,29.0
-182.0,71.0,130.0,-18.0,-280.0,45.0,67.0,36.0
-208.0,89.0,72.0,19.0,-136.0,91.0,10.0,54.0
-155.0,64.0,29.0,31.0,-227.0,43.0,-15.0,55.0
-27.0,38.0,-101.0,8.0,-288.0,126.0,50.0,59.0
98.0,34.0,-139.0,-34.0,-217.0,219.0,54.0,41.0
102.0,29.0,-212.0,-88.0,-15.0,248.0,25.0,43.0
21.0,3.0,-182.0,-89.0,132.0,220.0,-22.0,22.0
-36.0,-46.0,-93.0,-79.0,18.0,246.0,-94.0,12.0
-106.0,-43.0,-24.0,-55.0,-35.0,311.0,-41.0,17.0
-152.0,1.0,80.0,-32.0,-116.0,223.0,-40.0,6.0
-135.0,29.0,172.0,-13.0,-164.0,111.0,-162.0,27.0
-102.0,49.0,223.0,-9.0,-156.0,90.0,-221.0,34.0
-96.0,44.0,197.0,7.0,-168.0,126.0,-147.0,25.0
-131.0,47.0,254.0,48.0,-185.0,63.0,-79.0,43.0
-120.0,66.0,260.0,37.0,-203.0,6.0,-77.0,30.0
-84.0,71.0,207.0,39.0,-185.0,2.0,-20.0,30.0
-122.0,81.0,205.0,36.0,-256.0,38.0,14.0,60.0
-104.0,111.0,202.0,25.0,-236.0,0.0,-50.0,22.0
-9.0,78.0,150.0,19.0,-111.0,9.0,-63.0,10.0
65.0,71.0,55.0,1.0,-29.0,50.0,7.0,9.0
72.0,49.0,-60.0,4.0,-49.0,15.0,50.0,7.0
70.0,20.0,-164.0,-16.0,-152.0,38.0,113.0,2.0
103.0,38.0,-198.0,-33.0,-160.0,88.0,102.0,-21.0
89.0,6.0,-219.0,-6.0,23.0,138.0,70.0,-22.0
60.0,-1.0,-146.0,-16.0,66.0,70.0,43.0,-36.0
12.0,18.0,-104.0,-39.0,97.0,20.0,25.0,-25.0
-40.0,6.0,-140.0,-44.0,276.0,50.0,84.0,-28.0
-76.0,-42.0,-99.0,-40.0,253.0,28.0,152.0,-22.0
-108.0,-56.0,-37.0,-4.0,270.0,9.0,185.0,-15.0
-80.0,-31.0,17.0,4.0,248.0,5.0,138.0,-29.0
-83.0,-21.0,0.0,-9.0,56.0,11.0,106.0,-18.0
-11.0,-4.0,2.0,-10.0,3.0,37.0,148.0,12.0
12.0,6.0,50.0,2.0,145.0,113.0,225.0,26.0
2.0,40.0,124.0,-28.0,458.0,148.0,246.0,16.0
125.0,53.0,74.0,-22.0,641.0,131.0,229.0,15.0
180.0,55.0,11.0,-13.0,615.0,89.0,200.0,8.0
214.0,40.0,24.0,-4.0,480.0,33.0,144.0,14.0
132.0,-16.0,-28.0,7.0,281.0,35.0,172.0,27.0
-18.0,-68.0,-16.0,-28.0,229.0,53.0,100.0,32.0
-46.0,-53.0,-64.0,-29.0,230.0,-8.0,93.0,17.0
-9.0,-1.0,-83.0,-38.0,184.0,8.0,149.0,40.0
-6.0,-18.0,21.0,-7.0,127.0,8.0,86.0,24.0
-17.0,-35.0,26.0,18.0,84.0,-18.0,37.0,8.0
10.0,-5.0,-24.0,-2.0,103.0,10.0,-6.0,11.0
-5.0,-31.0,-30.0,-7.0,275.0,45.0,-2.0,-20.0
-4.0,-44.0,-37.0,-3.0,365.0,119.0,24.0,1.0
13.0,-8.0,-70.0,-28.0,308.0,79.0,21.0,-2.0
-6.0,8.0,-100.0,-72.0,373.0,31.0,-20.0,3.0
-48.0,2.0,-102.0,-111.0,293.0,14.0,-14.0,-11.0
-87.0,-8.0,-114.0,-109.0,230.0,-72.0,-7.0,-30.0
-61.0,-13.0,-209.0,-54.0,237.0,-122.0,-45.0,17.0
-16.0,12.0,-85.0,-41.0,200.0,-175.0,-77.0,3.0
1.0,18.0,106.0,-3.0,123.0,-167.0,-122.0,-3.0
11.0,2.0,80.0,-15.0,30.0,-139.0,-124.0,-14.0
7.0,8.0,111.0,-44.0,155.0,-102.0,-124.0,-31.0
37.0,1.0,30.0,-71.0,56.0,-134.0,-98.0,-8.0
-5.0,-47.0,-15.0,-62.0,-94.0,-154.0,-82.0,-16.0
-70.0,-83.0,-74.0,-34.0,40.0,-120.0,-82.0,-4.0
-91.0,-62.0,-157.0,-45.0,67.0,-139.0,-69.0,-22.0
-111.0,-59.0,-114.0,11.0,44.0,-112.0,-51.0,-26.0
-60.0,-65.0,-83.0,-4.0,72.0,-78.0,-13.0,14.0
-1.0,-24.0,-41.0,23.0,89.0,-30.0,23.0,29.0
8.0,-12.0,-137.0,27.0,182.0,-16.0,9.0,9.0
-62.0,-27.0,-263.0,-29.0,222.0,-64.0,16.0,20.0
-90.0,-30.0,-247.0,-40.0,272.0,-75.0,45.0,59.0
-11.0,6.0,-104.0,-37.0,219.0,-50.0,62.0,42.0
7.0,44.0,-52.0,-47.0,83.0,20.0,32.0,25.0
3.0,58.0,5.0,-1.0,20.0,-6.0,33.0,24.0
6.0,56.0,201.0,39.0,-60.0,-32.0,87.0,13.0
31.0,53.0,207.0,32.0,-32.0,-41.0,68.0,38.0
81.0,52.0,121.0,18.0,17.0,-23.0,53.0,50.0
82.0,63.0,128.0,-2.0,-19.0,28.0,48.0,29.0
114.0,70.0,134.0,40.0,-153.0,-72.0,49.0,39.0
74.0,50.0,108.0,16.0,-283.0,-31.0,58.0,9.0
20.0,28.0,59.0,5.0,-263.0,46.0,40.0,15.0
13.0,-3.0,4.0,8.0,-225.0,55.0,-1.0,27.0
-3.0,-58.0,-28.0,7.0,-148.0,62.0,14.0,-20.0
-88.0,-67.0,-68.0,-16.0,-105.0,10.0,-3.0,-14.0
-131.0,-101.0,-129.0,-33.0,-74.0,1.0,-17.0,31.0
-35.0,-118.0,-271.0,-20.0,-105.0,4.0,13.0,31.0
26.0,-72.0,-269.0,-2.0,-202.0,6.0,21.0,28.0
21.0,-36.0,47.0,26.0,-73.0,16.0,25.0,16.0
-7.0,-10.0,197.0,-1.0,-55.0,16.0,4.0,4.0
-83.0,-5.0,288.0,-19.0,70.0,42.0,41.0,3.0
-266.0,-3.0,415.0,-52.0,180.0,72.0,51.0,3.0
-388.0,-4.0,354.0,-25.0,97.0,61.0,38.0,8.0
-238.0,43.0,242.0,-20.0,109.0,66.0,33.0,24.0
-70.0,29.0,110.0,-16.0,6.0,74.0,48.0,39.0
109.0,36.0,88.0,6.0,-152.0,61.0,64.0,34.0
257.0,49.0,72.0,-19.0,-319.0,53.0,68.0,39.0
274.0,27.0,34.0,12.0,-247.0,115.0,78.0,49.0
269.0,69.0,67.0,20.0,-309.0,145.0,61.0,41.0
138.0,86.0,23.0,32.0,-350.0,171.0,107.0,90.0
-9.0,102.0,-59.0,44.0,-217.0,236.0,87.0,87.0
11.0,63.0,-40.0,27.0,-170.0,241.0,88.0,53.0
119.0,20.0,-24.0,40.0,114.0,256.0,69.0,65.0
195.0,2.0,-52.0,12.0,101.0,160.0,25.0,28.0
138.0,8.0,-30.0,13.0,17.0,95.0,55.0,21.0
39.0,-5.0,-54.0,-13.0,108.0,58.0,42.0,25.0
100.0,-2.0,-97.0,-28.0,103.0,49.0,29.0,26.0
178.0,-1.0,-107.0,-20.0,-43.0,8.0,-8.0,19.0
119.0,-11.0,-126.0,-34.0,-376.0,-94.0,1.0,24.0
-14.0,0.0,-122.0,-22.0,-409.0,-18.0,13.0,39.0
-143.0,-31.0,-98.0,-32.0,-128.0,31.0,-11.0,25.0
-95.0,5.0,-145.0,-53.0,45.0,36.0,7.0,14.0
-101.0,18.0,-179.0,-70.0,-53.0,-26.0,-10.0,-6.0
-215.0,11.0,-160.0,-73.0,-182.0,-90.0,-21.0,-4.0
-195.0,10.0,-129.0,-77.0,-218.0,-33.0,2.0,-6.0
-111.0,-10.0,-98.0,-72.0,-168.0,22.0,-4.0,-39.0
43.0,-16.0,-95.0,-56.0,-50.0,-18.0,-22.0,-10.0
97.0,-48.0,-54.0,-38.0,-15.0,19.0,-7.0,1.0
30.0,-36.0,-41.0,-38.0,119.0,56.0,15.0,-10.0
-20.0,-22.0,-22.0,-37.0,105.0,4.0,-9.0,22.0
-203.0,-34.0,16.0,-23.0,-28.0,-12.0,-1.0,25.0
-614.0,9.0,21.0,-30.0,16.0,9.0,40.0,30.0
-698.0,18.0,28.0,-7.0,32.0,17.0,26.0,59.0
-280.0,4.0,27.0,-23.0,-33.0,-37.0,23.0,38.0
-23.0,22.0,42.0,-29.0,-9.0,12.0,12.0,24.0
212.0,30.0,9.0,-19.0,188.0,88.0,16.0,38.0
166.0,10.0,7.0,0.0,103.0,74.0,44.0,49.0
-11.0,-22.0,41.0,30.0,41.0,50.0,51.0,51.0
-212.0,-14.0,52.0,46.0,142.0,50.0,46.0,60.0
-314.0,8.0,39.0,67.0,118.0,20.0,61.0,38.0
-86.0,42.0,51.0,77.0,114.0,-1.0,74.0,51.0
249.0,87.0,137.0,64.0,170.0,35.0,93.0,80.0
680.0,108.0,142.0,34.0,235.0,41.0,76.0,51.0
640.0,93.0,69.0,-19.0,114.0,-40.0,49.0,36.0
473.0,62.0,-22.0,-63.0,19.0,-97.0,39.0,16.0
306.0,19.0,-190.0,-77.0,-34.0,-55.0,35.0,21.0
99.0,-35.0,-247.0,-53.0,-43.0,-10.0,35.0,31.0
31.0,17.0,-106.0,-24.0,-55.0,-5.0,2.0,22.0
-49.0,7.0,-67.0,-33.0,-44.0,-21.0,9.0,12.0
-92.0,-22.0,-73.0,-41.0,113.0,12.0,22.0,9.0
-155.0,27.0,-50.0,-25.0,123.0,-2.0,-2.0,3.0
-112.0,-2.0,-81.0,-37.0,111.0,-55.0,4.0,0.0
-104.0,-44.0,-102.0,-51.0,41.0,-43.0,13.0,30.0
-150.0,-87.0,-119.0,-46.0,-76.0,-54.0,13.0,18.0
-82.0,-35.0,-78.0,-9.0,-160.0,-51.0,-1.0,8.0
-51.0,-34.0,-18.0,12.0,-242.0,-42.0,10.0,2.0
-82.0,-37.0,-8.0,7.0,-103.0,-25.0,10.0,10.0
-96.0,-19.0,32.0,4.0,96.0,36.0,17.0,42.0
-124.0,-39.0,77.0,4.0,137.0,56.0,27.0,37.0
-117.0,-8.0,142.0,44.0,58.0,-11.0,12.0,14.0
-82.0,-21.0,168.0,-10.0,-89.0,-52.0,31.0,-8.0
-110.0,-5.0,150.0,-24.0,-87.0,30.0,29.0,30.0
-95.0,36.0,189.0,2.0,-67.0,51.0,43.0,39.0
-109.0,17.0,215.0,4.0,-55.0,44.0,32.0,14.0
-99.0,23.0,231.0,28.0,43.0,61.0,12.0,-1.0
-67.0,52.0,181.0,-3.0,-8.0,50.0,54.0,3.0
-49.0,65.0,84.0,3.0,-90.0,35.0,69.0,20.0
8.0,51.0,75.0,-14.0,-137.0,-11.0,66.0,-2.0
-24.0,28.0,42.0,-4.0,-174.0,20.0,45.0,35.0
15.0,30.0,77.0,54.0,-136.0,13.0,76.0,46.0
77.0,44.0,114.0,38.0,-94.0,0.0,79.0,63.0
-53.0,40.0,73.0,0.0,-186.0,27.0,43.0,49.0
-288.0,48.0,4.0,0.0,-120.0,38.0,73.0,31.0
-280.0,44.0,-54.0,22.0,-54.0,85.0,62.0,35.0
-18.0,41.0,-9.0,25.0,-98.0,28.0,44.0,19.0
241.0,11.0,7.0,-4.0,-101.0,-6.0,12.0,-9.0
393.0,13.0,5.0,-21.0,-172.0,2.0,10.0,-12.0
119.0,28.0,-1.0,-34.0,-163.0,4.0,21.0,6.0
-373.0,-34.0,-44.0,-52.0,-274.0,-7.0,2.0,-8.0
-379.0,-94.0,-76.0,-84.0,-299.0,-57.0,-10.0,-6.0
-327.0,-99.0,-125.0,-57.0,-244.0,-58.0,-18.0,-26.0
