-417.0,-403.0,-466.0,-202.0,4000.0,-881.0,1255.0,-557.0
-1537.0,-346.0,-1362.0,-336.0,-1853.0,-945.0,1194.0,-710.0
-1544.0,-304.0,-1297.0,-448.0,-4000.0,-1005.0,181.0,-658.0
-1296.0,-291.0,-1035.0,-462.0,-4000.0,-988.0,-1735.0,-659.0
-974.0,-277.0,-1146.0,-377.0,-4000.0,-1010.0,-2691.0,-540.0
-246.0,-231.0,-927.0,-263.0,-877.0,-1005.0,-3407.0,-259.0
235.0,-195.0,-369.0,-276.0,3150.0,-924.0,-4000.0,-43.0
418.0,-199.0,31.0,-206.0,4000.0,-945.0,-4000.0,413.0
257.0,-125.0,266.0,-40.0,4000.0,-1030.0,-2369.0,1252.0
-175.0,-55.0,263.0,-76.0,4000.0,-770.0,-686.0,2183.0
-523.0,-53.0,506.0,-148.0,4000.0,-211.0,380.0,2835.0
-376.0,-47.0,1249.0,-62.0,4000.0,479.0,1125.0,3210.0
-209.0,-92.0,1438.0,149.0,4000.0,1163.0,795.0,3535.0
-69.0,-146.0,781.0,245.0,4000.0,1380.0,1574.0,4000.0
180.0,-140.0,203.0,162.0,4000.0,1312.0,2811.0,4000.0
416.0,-28.0,89.0,124.0,4000.0,1704.0,3021.0,4000.0
668.0,19.0,526.0,207.0,4000.0,2316.0,2973.0,3987.0
660.0,52.0,-515.0,248.0,4000.0,2254.0,3270.0,3847.0
433.0,170.0,-2169.0,132.0,4000.0,1666.0,3795.0,3535.0
-56.0,191.0,-2238.0,93.0,4000.0,953.0,3347.0,3079.0
-571.0,146.0,-1917.0,-35.0,4000.0,309.0,2696.0,2498.0
-771.0,93.0,-1128.0,-190.0,4000.0,-277.0,2049.0,1986.0
-535.0,241.0,-781.0,-159.0,4000.0,-859.0,2256.0,1568.0
187.0,386.0,-801.0,-267.0,4000.0,-1310.0,4000.0,1121.0
627.0,290.0,-882.0,-182.0,4000.0,-1532.0,4000.0,731.0
408.0,208.0,-466.0,137.0,4000.0,-1372.0,4000.0,206.0
94.0,215.0,230.0,199.0,509.0,-973.0,3411.0,-283.0
-107.0,241.0,98.0,-82.0,-4000.0,-373.0,526.0,-638.0
-69.0,266.0,179.0,-475.0,-4000.0,315.0,-1246.0,-1013.0
30.0,217.0,501.0,-556.0,-4000.0,947.0,-3147.0,-1339.0
192.0,217.0,441.0,-288.0,-4000.0,1657.0,-4000.0,-1534.0
-39.0,80.0,533.0,-91.0,-4000.0,2319.0,-4000.0,-1404.0
-396.0,-161.0,908.0,-4.0,-4000.0,2953.0,-4000.0,-1050.0
-123.0,-255.0,1062.0,-10.0,-4000.0,3409.0,-3065.0,-673.0
342.0,-468.0,1452.0,-65.0,-4000.0,3705.0,1052.0,-410.0
1506.0,-505.0,589.0,-66.0,-4000.0,3792.0,1720.0,-280.0
2585.0,-326.0,-43.0,-41.0,-4000.0,3742.0,684.0,-26.0
961.0,-121.0,492.0,320.0,-4000.0,3604.0,-226.0,136.0
-1815.0,191.0,1888.0,699.0,-4000.0,3166.0,1996.0,-134.0
-2761.0,325.0,3564.0,668.0,-4000.0,2450.0,2749.0,-521.0
-2892.0,228.0,1692.0,557.0,-4000.0,1710.0,1734.0,-683.0
-2154.0,82.0,-716.0,645.0,-4000.0,1247.0,1399.0,-781.0
-1353.0,-41.0,-936.0,714.0,-4000.0,1083.0,494.0,-658.0
-807.0,74.0,-1667.0,303.0,-4000.0,1071.0,-473.0,-350.0
-345.0,163.0,-1294.0,-456.0,-4000.0,1018.0,-1031.0,-344.0
-443.0,223.0,598.0,-864.0,-4000.0,771.0,-344.0,-804.0
-409.0,212.0,-148.0,-594.0,-4000.0,463.0,791.0,-1013.0
74.0,82.0,-2202.0,-315.0,-4000.0,79.0,2452.0,-1126.0
1283.0,57.0,-3095.0,-35.0,-4000.0,-51.0,3559.0,-1526.0
1726.0,-127.0,-1927.0,175.0,-4000.0,-107.0,3990.0,-1829.0
1181.0,-224.0,299.0,75.0,-4000.0,-304.0,563.0,-1906.0
627.0,-71.0,1549.0,-87.0,-4000.0,-737.0,-3472.0,-1921.0
15.0,10.0,1571.0,-84.0,-4000.0,-1070.0,-3509.0,-2153.0
31.0,40.0,333.0,402.0,-4000.0,-1118.0,-320.0,-2362.0
1039.0,7.0,1192.0,956.0,-4000.0,-1422.0,3021.0,-2651.0
2987.0,-52.0,2616.0,980.0,-1638.0,-1486.0,2190.0,-2735.0
4000.0,-41.0,2352.0,752.0,-49.0,-1431.0,1054.0,-2682.0
4000.0,69.0,822.0,337.0,2255.0,-1467.0,352.0,-2502.0
1766.0,275.0,-357.0,-445.0,4000.0,-1505.0,-994.0,-2100.0
-4000.0,476.0,-226.0,-914.0,4000.0,-1599.0,-4000.0,-1677.0
-4000.0,542.0,-225.0,-1305.0,4000.0,-1650.0,-4000.0,-979.0
-4000.0,248.0,-959.0,-1146.0,4000.0,-1715.0,-1031.0,-356.0
-4000.0,-30.0,-1630.0,-724.0,4000.0,-1729.0,281.0,-164.0
-2968.0,-87.0,-1036.0,-971.0,4000.0,-1526.0,1267.0,255.0
-2345.0,-333.0,-741.0,-782.0,4000.0,-1248.0,3854.0,686.0
-1622.0,-440.0,-606.0,-489.0,4000.0,-1107.0,4000.0,742.0
436.0,-414.0,260.0,-17.0,4000.0,-750.0,4000.0,1012.0
1743.0,-509.0,606.0,282.0,4000.0,-134.0,4000.0,1085.0
1950.0,-551.0,344.0,435.0,4000.0,283.0,4000.0,1221.0
1488.0,-403.0,-91.0,512.0,4000.0,541.0,4000.0,973.0
1084.0,-131.0,-480.0,187.0,4000.0,926.0,4000.0,723.0
1832.0,-14.0,318.0,72.0,4000.0,1352.0,4000.0,786.0
1897.0,-32.0,2486.0,-56.0,4000.0,1539.0,3811.0,686.0
1441.0,-188.0,3510.0,-288.0,4000.0,1452.0,2384.0,860.0
399.0,-271.0,3829.0,-636.0,4000.0,896.0,1214.0,890.0
-366.0,-280.0,2665.0,-715.0,4000.0,636.0,-1559.0,1142.0
-1126.0,-314.0,-1452.0,-466.0,4000.0,870.0,-2921.0,914.0
-189.0,-129.0,-2325.0,-103.0,4000.0,843.0,-1264.0,535.0
412.0,148.0,-1072.0,116.0,4000.0,641.0,-114.0,344.0
-732.0,412.0,-490.0,182.0,2825.0,270.0,-1684.0,160.0
-230.0,639.0,-709.0,366.0,1734.0,53.0,-4000.0,111.0
-102.0,803.0,-140.0,559.0,2085.0,162.0,-3766.0,228.0
-18.0,855.0,269.0,695.0,1627.0,56.0,-2921.0,497.0
101.0,737.0,-1134.0,598.0,3346.0,-222.0,-3903.0,397.0
-523.0,586.0,-415.0,500.0,4000.0,-598.0,-4000.0,276.0
-368.0,456.0,28.0,336.0,4000.0,-977.0,-4000.0,40.0
691.0,386.0,-768.0,185.0,4000.0,-1054.0,-3118.0,170.0
1735.0,355.0,-2770.0,142.0,4000.0,-1005.0,124.0,811.0
1038.0,355.0,-3567.0,169.0,4000.0,-615.0,3494.0,1045.0
-844.0,167.0,-2267.0,105.0,4000.0,-358.0,4000.0,465.0
-2031.0,-35.0,-607.0,-25.0,4000.0,-516.0,3984.0,-389.0
-1560.0,-215.0,793.0,-22.0,4000.0,-482.0,3021.0,-804.0
-589.0,-222.0,556.0,-103.0,4000.0,-464.0,1592.0,-1050.0
-432.0,9.0,498.0,1.0,4000.0,-462.0,17.0,-948.0
-413.0,75.0,793.0,169.0,4000.0,-383.0,-723.0,-431.0
-348.0,25.0,1627.0,203.0,4000.0,-293.0,-1197.0,-21.0
-27.0,-159.0,1550.0,246.0,4000.0,-123.0,-845.0,135.0
382.0,-340.0,349.0,248.0,4000.0,-358.0,-1377.0,151.0
1282.0,-478.0,-132.0,187.0,2419.0,-856.0,-29.0,389.0
2597.0,-527.0,-856.0,-71.0,-708.0,-855.0,3021.0,882.0
1384.0,-436.0,-356.0,-271.0,-2287.0,-708.0,2631.0,1260.0
-634.0,-383.0,498.0,-326.0,-840.0,-855.0,171.0,1003.0
-1531.0,-205.0,663.0,-239.0,-14.0,-855.0,16.0,478.0
-2516.0,-43.0,621.0,-43.0,1734.0,-262.0,1967.0,0.0
-1978.0,-112.0,830.0,-10.0,3916.0,433.0,2973.0,-549.0
-1296.0,-111.0,2225.0,24.0,4000.0,880.0,-28.0,-948.0
-575.0,-32.0,3788.0,276.0,4000.0,1077.0,-2805.0,-1111.0
212.0,110.0,2600.0,419.0,4000.0,994.0,-4000.0,-1245.0
436.0,225.0,-564.0,155.0,2776.0,1012.0,-4000.0,-1723.0
986.0,1030.0,-1944.0,-15.0,1083.0,1157.0,-4000.0,-1924.0
1095.0,1748.0,-2216.0,-47.0,1091.0,1092.0,-4000.0,-1590.0
1085.0,1331.0,-828.0,195.0,230.0,896.0,-4000.0,-1123.0
863.0,917.0,400.0,603.0,-877.0,261.0,-4000.0,-366.0
508.0,-199.0,671.0,243.0,-2451.0,-685.0,-2650.0,3.0
187.0,-1052.0,1900.0,-393.0,-4000.0,-1161.0,232.0,-248.0
127.0,-1155.0,903.0,-784.0,-4000.0,-945.0,1214.0,-286.0
114.0,-1589.0,-906.0,-1010.0,-4000.0,-407.0,1874.0,-583.0
-70.0,-1522.0,-1714.0,-943.0,-2435.0,-130.0,1259.0,-1005.0
-261.0,-1208.0,-2515.0,-877.0,-1169.0,113.0,1007.0,-673.0
-233.0,-948.0,-2299.0,-636.0,-2252.0,207.0,1581.0,-15.0
33.0,-814.0,-1914.0,-336.0,-3312.0,127.0,2956.0,355.0
-9.0,-635.0,-1484.0,-108.0,-1200.0,396.0,4000.0,397.0
68.0,-208.0,-820.0,36.0,367.0,673.0,4000.0,184.0
58.0,-144.0,-393.0,-55.0,431.0,877.0,4000.0,4.0
-58.0,-65.0,-203.0,-113.0,831.0,699.0,4000.0,293.0
-101.0,44.0,223.0,-55.0,1075.0,199.0,4000.0,-108.0
-96.0,85.0,244.0,27.0,562.0,-118.0,4000.0,-753.0
-114.0,341.0,-53.0,402.0,-248.0,-260.0,4000.0,-839.0
-203.0,351.0,-82.0,830.0,-1052.0,-409.0,881.0,-1135.0
-102.0,460.0,-149.0,400.0,-2627.0,-407.0,-4000.0,-1123.0
-7.0,640.0,30.0,-74.0,-3642.0,-641.0,-4000.0,-1143.0
70.0,556.0,114.0,-23.0,-2806.0,-977.0,-4000.0,-1250.0
9.0,420.0,246.0,-121.0,-1572.0,-1188.0,-4000.0,-1310.0
-56.0,477.0,382.0,-87.0,-1012.0,-1766.0,-4000.0,-1339.0
5.0,646.0,467.0,-97.0,-559.0,-1989.0,-3968.0,-1514.0
82.0,359.0,519.0,-48.0,-143.0,-2137.0,-1249.0,-1200.0
92.0,-60.0,541.0,145.0,1796.0,-1951.0,-946.0,-254.0
4.0,-169.0,592.0,377.0,526.0,-1396.0,765.0,425.0
-3.0,-353.0,507.0,603.0,-3661.0,-1200.0,1143.0,939.0
-25.0,-509.0,502.0,756.0,-4000.0,-1005.0,1143.0,1020.0
-13.0,-253.0,494.0,941.0,-4000.0,-852.0,1908.0,1003.0
4.0,128.0,577.0,687.0,-4000.0,-533.0,-1527.0,731.0
12.0,713.0,621.0,382.0,-4000.0,-337.0,-4000.0,418.0
18.0,1168.0,582.0,178.0,-4000.0,-349.0,-2626.0,723.0
11.0,1030.0,569.0,-74.0,-4000.0,-293.0,-48.0,1194.0
15.0,345.0,523.0,-165.0,-4000.0,-287.0,2.0,1762.0
7.0,-181.0,512.0,-326.0,-4000.0,-186.0,-290.0,2442.0
1.0,-214.0,501.0,-510.0,-4000.0,28.0,-172.0,2807.0
-22.0,-375.0,459.0,-433.0,-4000.0,391.0,-51.0,3079.0
-23.0,-460.0,325.0,-255.0,-4000.0,628.0,1013.0,3079.0
0.0,-484.0,48.0,-211.0,-4000.0,636.0,-59.0,2901.0
4.0,-423.0,-219.0,-132.0,-4000.0,734.0,-1462.0,3673.0
-30.0,-75.0,-357.0,-109.0,-4000.0,874.0,-1312.0,4000.0
-4.0,-12.0,-385.0,-462.0,-4000.0,1071.0,-750.0,4000.0
12.0,-224.0,-354.0,-849.0,-4000.0,1254.0,-1128.0,4000.0
38.0,-34.0,-328.0,-959.0,-4000.0,1344.0,-1684.0,4000.0
96.0,51.0,-362.0,-936.0,-4000.0,1531.0,-1071.0,4000.0
102.0,912.0,-369.0,-645.0,-863.0,1655.0,-1816.0,3871.0
86.0,1908.0,-340.0,-208.0,1097.0,1669.0,-2043.0,4000.0
74.0,973.0,-324.0,59.0,2842.0,1482.0,-1527.0,3209.0
16.0,94.0,-279.0,465.0,3558.0,1136.0,-929.0,1502.0
-15.0,-601.0,-234.0,988.0,4000.0,953.0,-224.0,980.0
-11.0,-1181.0,-200.0,1367.0,4000.0,857.0,-658.0,1467.0
-43.0,-1025.0,-242.0,1350.0,4000.0,854.0,-10.0,1586.0
-41.0,-763.0,-425.0,699.0,4000.0,896.0,58.0,853.0
-56.0,-360.0,-478.0,193.0,4000.0,1214.0,-210.0,1069.0
-33.0,-224.0,-454.0,30.0,4000.0,1533.0,90.0,1914.0
-60.0,-16.0,-515.0,98.0,4000.0,1279.0,-522.0,2302.0
-71.0,-96.0,-572.0,-107.0,4000.0,701.0,-548.0,2819.0
-25.0,-2.0,-651.0,-438.0,4000.0,-419.0,177.0,3209.0
-35.0,98.0,-741.0,-308.0,4000.0,-1461.0,424.0,3144.0
-11.0,-158.0,-821.0,-521.0,4000.0,-1242.0,563.0,3161.0
49.0,12.0,-727.0,-515.0,4000.0,-458.0,948.0,3209.0
72.0,563.0,-490.0,-344.0,4000.0,237.0,1770.0,2883.0
77.0,1461.0,-290.0,-326.0,4000.0,809.0,2375.0,1716.0
109.0,1461.0,-47.0,-265.0,4000.0,1188.0,2442.0,522.0
54.0,717.0,125.0,-65.0,4000.0,1252.0,3006.0,-931.0
26.0,384.0,253.0,675.0,4000.0,953.0,3530.0,-3593.0
24.0,143.0,436.0,891.0,4000.0,506.0,4000.0,-4000.0
-32.0,550.0,556.0,76.0,1051.0,404.0,4000.0,-4000.0
-102.0,522.0,556.0,-527.0,-3312.0,496.0,4000.0,-4000.0
-201.0,-553.0,480.0,-776.0,-4000.0,415.0,4000.0,-4000.0
-246.0,-1135.0,455.0,-875.0,-4000.0,758.0,4000.0,-4000.0
-206.0,-1220.0,443.0,-652.0,-4000.0,1142.0,4000.0,-4000.0
-108.0,-948.0,401.0,-498.0,-4000.0,1693.0,4000.0,-4000.0
-75.0,-743.0,498.0,-234.0,-4000.0,2112.0,4000.0,-4000.0
-34.0,-566.0,624.0,-104.0,-4000.0,1474.0,4000.0,-4000.0
-79.0,-531.0,911.0,-37.0,-4000.0,902.0,4000.0,-4000.0
-105.0,-749.0,1322.0,-48.0,-4000.0,521.0,4000.0,-4000.0
-43.0,-548.0,1423.0,-115.0,-4000.0,-41.0,4000.0,-4000.0
-70.0,64.0,1544.0,87.0,-4000.0,102.0,4000.0,-4000.0
-24.0,371.0,1757.0,236.0,-4000.0,130.0,4000.0,-4000.0
-37.0,460.0,1509.0,329.0,-4000.0,-448.0,3021.0,-4000.0
-27.0,733.0,1192.0,146.0,-4000.0,-548.0,2514.0,-3330.0
-12.0,644.0,801.0,-125.0,338.0,-779.0,1854.0,-3154.0
-29.0,408.0,133.0,-381.0,4000.0,-1135.0,665.0,-2698.0
15.0,337.0,-344.0,-118.0,4000.0,-1056.0,336.0,-2584.0
37.0,197.0,-802.0,329.0,4000.0,-997.0,56.0,-2153.0
89.0,-20.0,-1016.0,431.0,4000.0,-1265.0,-465.0,-1709.0
141.0,-83.0,-1279.0,610.0,4000.0,-1330.0,-1006.0,-1626.0
139.0,-299.0,-1517.0,520.0,4000.0,-1118.0,-1051.0,-1372.0
98.0,-479.0,-1557.0,446.0,4000.0,-1200.0,-882.0,-985.0
52.0,-539.0,-1667.0,490.0,4000.0,-1127.0,-1136.0,-870.0
-8.0,-665.0,-1618.0,413.0,4000.0,-1093.0,-1425.0,-1245.0
-35.0,-470.0,-1557.0,264.0,4000.0,-932.0,-1397.0,-1339.0
-92.0,-282.0,-1427.0,-70.0,4000.0,-379.0,-1181.0,-1176.0
-176.0,-230.0,-1414.0,-422.0,4000.0,87.0,-897.0,-1110.0
-179.0,-224.0,-1348.0,-316.0,4000.0,364.0,-546.0,-1126.0
-201.0,-130.0,-1348.0,-107.0,4000.0,551.0,-227.0,-1130.0
-186.0,-70.0,-1362.0,9.0,4000.0,586.0,-601.0,-809.0
-149.0,20.0,-1339.0,207.0,4000.0,701.0,-2158.0,-471.0
-78.0,84.0,-1211.0,167.0,4000.0,896.0,-3700.0,-370.0
-17.0,135.0,-932.0,145.0,4000.0,822.0,-4000.0,-234.0
-5.0,200.0,-833.0,120.0,4000.0,752.0,-4000.0,82.0
39.0,216.0,-761.0,171.0,4000.0,967.0,-4000.0,295.0
33.0,269.0,-692.0,37.0,4000.0,1053.0,-4000.0,-22.0
47.0,289.0,-669.0,-212.0,4000.0,738.0,-4000.0,-268.0
56.0,305.0,-711.0,-190.0,4000.0,616.0,-4000.0,170.0
56.0,319.0,-585.0,-137.0,4000.0,570.0,-4000.0,531.0
53.0,248.0,-189.0,35.0,4000.0,857.0,-4000.0,36.0
48.0,146.0,-119.0,115.0,4000.0,823.0,-4000.0,-362.0
40.0,83.0,-357.0,-40.0,4000.0,-107.0,-4000.0,228.0
2.0,25.0,-255.0,-127.0,4000.0,-1070.0,-4000.0,43.0
1.0,20.0,85.0,-137.0,3102.0,-2595.0,-4000.0,-55.0
-27.0,14.0,280.0,-202.0,2320.0,-4000.0,-4000.0,409.0
-29.0,-1.0,345.0,-206.0,880.0,-4000.0,-4000.0,653.0
-23.0,-36.0,592.0,-249.0,-730.0,-4000.0,-3700.0,1264.0
-5.0,-21.0,772.0,-306.0,-1915.0,-4000.0,-2610.0,1437.0
35.0,28.0,654.0,-287.0,-3982.0,-4000.0,-1665.0,1859.0
-13.0,62.0,584.0,-302.0,-4000.0,-4000.0,-1116.0,2705.0
-1.0,149.0,621.0,-266.0,-4000.0,-4000.0,-398.0,3328.0
32.0,205.0,715.0,-278.0,-4000.0,-4000.0,-680.0,3469.0
31.0,157.0,718.0,-275.0,-4000.0,-4000.0,-1332.0,3535.0
5.0,65.0,686.0,-242.0,-4000.0,-4000.0,-1119.0,3910.0
-18.0,63.0,671.0,-184.0,-4000.0,-4000.0,433.0,4000.0
-39.0,23.0,741.0,-141.0,-4000.0,-4000.0,1418.0,4000.0
-52.0,-24.0,793.0,-91.0,-4000.0,-4000.0,2321.0,4000.0
-29.0,-143.0,415.0,-17.0,-4000.0,-3209.0,3282.0,4000.0
40.0,-334.0,178.0,4.0,-4000.0,-2014.0,2843.0,4000.0
108.0,-340.0,309.0,10.0,-4000.0,-1186.0,2375.0,4000.0
74.0,-296.0,211.0,35.0,-4000.0,-555.0,2826.0,4000.0
23.0,-188.0,69.0,48.0,-4000.0,-93.0,3270.0,4000.0
37.0,-15.0,137.0,49.0,-4000.0,168.0,2761.0,3943.0
-36.0,13.0,228.0,87.0,-4000.0,412.0,2631.0,3527.0
-100.0,102.0,125.0,77.0,-4000.0,541.0,2321.0,3617.0
-58.0,241.0,111.0,77.0,-4000.0,693.0,2777.0,3079.0
-70.0,314.0,190.0,85.0,-4000.0,857.0,4000.0,2575.0
-60.0,343.0,50.0,52.0,-4000.0,877.0,4000.0,1077.0
-79.0,223.0,-24.0,38.0,-4000.0,778.0,4000.0,-212.0
-132.0,150.0,-49.0,31.0,-4000.0,479.0,4000.0,-500.0
-104.0,70.0,-75.0,37.0,-4000.0,54.0,4000.0,-883.0
-12.0,-14.0,-67.0,1.0,-4000.0,-449.0,4000.0,-1404.0
-6.0,-27.0,-34.0,-11.0,-4000.0,-810.0,3267.0,-1659.0
-23.0,-53.0,46.0,-42.0,-4000.0,-835.0,2514.0,-1970.0
21.0,-41.0,80.0,-25.0,-4000.0,-555.0,1658.0,-2179.0
43.0,-29.0,75.0,19.0,-4000.0,46.0,1280.0,-2427.0
69.0,-42.0,30.0,-23.0,-4000.0,571.0,1202.0,-2876.0
23.0,-56.0,-68.0,-63.0,-4000.0,592.0,813.0,-2537.0
-45.0,-41.0,-137.0,-78.0,-4000.0,248.0,133.0,-2063.0
-14.0,-30.0,-133.0,-64.0,-4000.0,-9.0,37.0,-1860.0
-15.0,18.0,-282.0,-54.0,-4000.0,31.0,-77.0,-1746.0
-15.0,17.0,-445.0,-74.0,-4000.0,274.0,21.0,-1469.0
-60.0,30.0,-234.0,-17.0,-4000.0,486.0,273.0,-1265.0
-85.0,38.0,132.0,55.0,-4000.0,628.0,36.0,-1504.0
14.0,0.0,174.0,85.0,-4000.0,791.0,-372.0,-1534.0
37.0,-35.0,166.0,167.0,-4000.0,870.0,-393.0,-1064.0
25.0,-133.0,476.0,171.0,-4000.0,1124.0,-662.0,43.0
74.0,-85.0,728.0,99.0,-4000.0,1604.0,-1262.0,409.0
68.0,-44.0,676.0,69.0,-4000.0,2056.0,-1438.0,-260.0
27.0,-80.0,466.0,7.0,-4000.0,2580.0,-1804.0,-292.0
-3.0,-51.0,396.0,7.0,-4000.0,3395.0,-2157.0,-442.0
-52.0,-70.0,364.0,-45.0,-4000.0,4000.0,-2594.0,-482.0
-56.0,-48.0,236.0,-35.0,-4000.0,4000.0,-2920.0,-419.0
-43.0,26.0,269.0,19.0,-3803.0,4000.0,-3131.0,-1391.0
17.0,41.0,384.0,-37.0,-3511.0,4000.0,-3326.0,-2515.0
16.0,38.0,437.0,-72.0,-3250.0,4000.0,-3377.0,-3740.0
24.0,33.0,402.0,-8.0,-3001.0,4000.0,-3455.0,-4000.0
93.0,38.0,450.0,96.0,-2794.0,4000.0,-3509.0,-4000.0
48.0,70.0,523.0,69.0,-2578.0,4000.0,-3751.0,-4000.0
18.0,66.0,331.0,-3.0,-2063.0,4000.0,-3993.0,-4000.0
-28.0,53.0,190.0,-70.0,-686.0,4000.0,-4000.0,-4000.0
-40.0,20.0,381.0,-91.0,496.0,4000.0,-4000.0,-4000.0
-51.0,-18.0,349.0,-146.0,1703.0,4000.0,-4000.0,-2346.0
-78.0,-5.0,256.0,-86.0,3269.0,4000.0,-4000.0,-111.0
-9.0,19.0,360.0,-15.0,4000.0,4000.0,-4000.0,1914.0
24.0,12.0,436.0,-2.0,4000.0,4000.0,-4000.0,3658.0
66.0,4.0,541.0,71.0,4000.0,4000.0,-3562.0,4000.0
74.0,-42.0,455.0,65.0,4000.0,4000.0,-2610.0,4000.0
95.0,-23.0,372.0,81.0,4000.0,4000.0,-1462.0,4000.0
61.0,19.0,441.0,85.0,4000.0,4000.0,88.0,4000.0
0.0,-28.0,360.0,30.0,4000.0,4000.0,1735.0,4000.0
58.0,16.0,169.0,18.0,4000.0,4000.0,3860.0,4000.0
32.0,26.0,64.0,91.0,4000.0,3914.0,4000.0,4000.0
-13.0,-32.0,-6.0,101.0,4000.0,3655.0,4000.0,4000.0
18.0,-82.0,-17.0,128.0,4000.0,3409.0,4000.0,2377.0
37.0,-56.0,-10.0,139.0,4000.0,3409.0,4000.0,426.0
13.0,-11.0,135.0,152.0,4000.0,3267.0,2647.0,-1803.0
-22.0,-27.0,189.0,150.0,4000.0,3101.0,3298.0,-4000.0
-32.0,9.0,125.0,93.0,4000.0,3083.0,3086.0,-4000.0
-63.0,26.0,163.0,99.0,4000.0,2939.0,4000.0,-4000.0
-73.0,49.0,63.0,85.0,4000.0,2710.0,4000.0,-4000.0
-77.0,34.0,60.0,95.0,4000.0,2512.0,4000.0,-4000.0
-82.0,13.0,55.0,67.0,4000.0,2254.0,4000.0,-4000.0
-64.0,36.0,-99.0,29.0,4000.0,1864.0,4000.0,-4000.0
-55.0,38.0,-125.0,10.0,4000.0,1590.0,4000.0,-3268.0
-55.0,58.0,-95.0,13.0,4000.0,1417.0,4000.0,-1245.0
-78.0,41.0,-72.0,67.0,4000.0,1333.0,4000.0,204.0
-35.0,38.0,-152.0,51.0,4000.0,1279.0,2442.0,890.0
-18.0,53.0,-303.0,35.0,4000.0,1189.0,603.0,569.0
-49.0,-10.0,-306.0,24.0,4000.0,1263.0,158.0,-1070.0
-74.0,-60.0,-385.0,-2.0,4000.0,1344.0,-59.0,-2415.0
-54.0,-42.0,-364.0,-21.0,4000.0,1287.0,-195.0,-3414.0
-6.0,-45.0,-193.0,-64.0,4000.0,1137.0,-1897.0,-4000.0
-31.0,-56.0,-100.0,-83.0,4000.0,1033.0,-3432.0,-4000.0
-23.0,-108.0,-1.0,-103.0,4000.0,1026.0,-3802.0,-4000.0
-10.0,-111.0,-38.0,-103.0,4000.0,953.0,-3106.0,-4000.0
27.0,-53.0,-122.0,-104.0,4000.0,823.0,-2610.0,-4000.0
-10.0,-59.0,-87.0,-80.0,4000.0,586.0,-2408.0,-4000.0
-33.0,-22.0,-99.0,-91.0,4000.0,288.0,-2714.0,-4000.0
-53.0,19.0,-165.0,-137.0,4000.0,-108.0,-2911.0,-4000.0
-77.0,3.0,-241.0,-109.0,4000.0,-327.0,-3984.0,-2893.0
-36.0,15.0,-282.0,-84.0,4000.0,-341.0,-4000.0,-996.0
-42.0,6.0,-281.0,-49.0,4000.0,-459.0,-4000.0,536.0
-19.0,-10.0,-303.0,-64.0,4000.0,-596.0,-4000.0,2313.0
-3.0,16.0,-328.0,-80.0,4000.0,-743.0,-4000.0,3588.0
5.0,71.0,-324.0,-38.0,4000.0,-875.0,-4000.0,4000.0
20.0,135.0,-263.0,15.0,4000.0,-940.0,-4000.0,4000.0
53.0,163.0,-365.0,15.0,4000.0,-993.0,-4000.0,4000.0
70.0,168.0,-409.0,34.0,4000.0,-1070.0,-4000.0,4000.0
69.0,148.0,-239.0,123.0,4000.0,-1200.0,-4000.0,4000.0
72.0,143.0,-84.0,142.0,4000.0,-1387.0,-4000.0,4000.0
31.0,132.0,-2.0,109.0,4000.0,-1532.0,-3326.0,4000.0
-11.0,70.0,20.0,4.0,4000.0,-1701.0,-2752.0,4000.0
-1.0,70.0,83.0,-63.0,4000.0,-1799.0,-2481.0,4000.0
31.0,36.0,13.0,-104.0,4000.0,-1886.0,-2536.0,4000.0
6.0,13.0,-133.0,-162.0,4000.0,-1961.0,-2805.0,4000.0
-13.0,18.0,-109.0,-121.0,4000.0,-1961.0,-2186.0,4000.0
21.0,6.0,-129.0,-70.0,2178.0,-1896.0,-1749.0,4000.0
15.0,0.0,-165.0,-28.0,-934.0,-1847.0,-2186.0,4000.0
-32.0,20.0,-174.0,-34.0,-4000.0,-1782.0,-2790.0,4000.0
-43.0,6.0,-147.0,-62.0,-4000.0,-1651.0,-2923.0,4000.0
-54.0,-100.0,-133.0,-90.0,-4000.0,-1509.0,-2530.0,4000.0
-35.0,-172.0,-129.0,-96.0,-4000.0,-1359.0,-1572.0,4000.0
-69.0,-159.0,-101.0,-82.0,-4000.0,-1233.0,-998.0,4000.0
-98.0,-114.0,-150.0,-137.0,-4000.0,-1054.0,-662.0,4000.0
-21.0,-111.0,-206.0,-179.0,-4000.0,-1038.0,-845.0,4000.0
33.0,-94.0,-232.0,-178.0,-4000.0,-1127.0,-1454.0,4000.0
-1.0,-94.0,-212.0,-172.0,-4000.0,-966.0,-1716.0,3524.0
-27.0,-171.0,-185.0,-178.0,-4000.0,-797.0,-1448.0,2835.0
32.0,-125.0,-99.0,-188.0,-4000.0,-665.0,-652.0,2183.0
60.0,-85.0,38.0,-161.0,-4000.0,-306.0,-30.0,1638.0
70.0,-35.0,142.0,-25.0,-4000.0,-8.0,105.0,1216.0
95.0,20.0,148.0,18.0,-4000.0,176.0,-28.0,876.0
60.0,-12.0,50.0,-18.0,-4000.0,486.0,-143.0,532.0
-20.0,-35.0,-75.0,-94.0,-4000.0,725.0,-420.0,426.0
-76.0,-59.0,-87.0,-141.0,-4000.0,667.0,-285.0,341.0
-42.0,-22.0,56.0,-92.0,-4000.0,473.0,451.0,269.0
-49.0,20.0,92.0,-86.0,-4000.0,335.0,1143.0,102.0
-32.0,83.0,63.0,-57.0,-4000.0,-4.0,1334.0,-267.0
-7.0,94.0,95.0,-63.0,-4000.0,-586.0,1072.0,-669.0
-13.0,70.0,17.0,-96.0,-4000.0,-1042.0,685.0,-983.0
-91.0,103.0,-28.0,-78.0,-4000.0,-1441.0,637.0,-948.0
-101.0,193.0,5.0,-71.0,-4000.0,-1587.0,1149.0,-844.0
-65.0,175.0,29.0,-90.0,-4000.0,-1526.0,1996.0,-818.0
-69.0,-96.0,89.0,-63.0,-4000.0,-1489.0,2582.0,-852.0
-13.0,-208.0,80.0,42.0,-4000.0,-1330.0,2682.0,-863.0
-22.0,-205.0,-13.0,66.0,-4000.0,-1249.0,2643.0,-866.0
14.0,-144.0,-40.0,63.0,-4000.0,-1263.0,2252.0,-889.0
31.0,17.0,-26.0,75.0,-3836.0,-1304.0,1801.0,-953.0
38.0,20.0,2.0,85.0,-556.0,-1316.0,1722.0,-1013.0
31.0,-63.0,96.0,149.0,1604.0,-1444.0,1469.0,-996.0
12.0,-87.0,107.0,290.0,3150.0,-1688.0,844.0,-875.0
38.0,124.0,158.0,240.0,4000.0,-1851.0,-51.0,-627.0
-26.0,215.0,190.0,-153.0,4000.0,-2144.0,-782.0,-476.0
-7.0,229.0,153.0,-285.0,3772.0,-2383.0,-1199.0,-462.0
21.0,225.0,95.0,-300.0,612.0,-2558.0,-1076.0,-522.0
17.0,111.0,59.0,-255.0,-1854.0,-2867.0,-550.0,-594.0
39.0,128.0,76.0,-141.0,-1817.0,-3048.0,-1.0,-692.0
36.0,110.0,77.0,-112.0,-1951.0,-3010.0,349.0,-862.0
30.0,93.0,118.0,-42.0,-2925.0,-2998.0,394.0,-1115.0
31.0,47.0,55.0,-13.0,-4000.0,-2853.0,410.0,-1404.0
49.0,45.0,38.0,178.0,-4000.0,-2608.0,441.0,-1677.0
60.0,49.0,8.0,227.0,-4000.0,-2447.0,472.0,-2035.0
36.0,29.0,12.0,130.0,-2405.0,-2209.0,693.0,-2324.0
18.0,21.0,53.0,71.0,100.0,-1961.0,989.0,-2676.0
9.0,0.0,39.0,136.0,1853.0,-1688.0,1115.0,-2995.0
-23.0,8.0,30.0,137.0,953.0,-1461.0,1760.0,-3256.0
3.0,12.0,-29.0,90.0,837.0,-1550.0,2440.0,-3504.0
24.0,38.0,-4.0,115.0,2360.0,-1709.0,2252.0,-3634.0
46.0,22.0,-3.0,120.0,4000.0,-1847.0,2375.0,-3694.0
36.0,-1.0,30.0,145.0,4000.0,-2119.0,2517.0,-3610.0
27.0,23.0,63.0,94.0,4000.0,-2178.0,2890.0,-3397.0
59.0,50.0,34.0,51.0,4000.0,-2207.0,3624.0,-3178.0
28.0,93.0,30.0,65.0,4000.0,-2286.0,3607.0,-2941.0
-31.0,201.0,26.0,54.0,4000.0,-2418.0,3885.0,-2698.0
-20.0,258.0,15.0,18.0,4000.0,-2400.0,4000.0,-2425.0
24.0,139.0,-23.0,-10.0,4000.0,-1818.0,4000.0,-2230.0
11.0,-69.0,-41.0,-17.0,4000.0,-881.0,3680.0,-2049.0
50.0,-307.0,-67.0,22.0,4000.0,107.0,2843.0,-2016.0
38.0,-375.0,-49.0,56.0,4000.0,988.0,2379.0,-2035.0
-28.0,-353.0,-29.0,46.0,4000.0,1521.0,1735.0,-1904.0
-67.0,-293.0,-29.0,-1.0,4000.0,1769.0,1223.0,-1801.0
-108.0,-208.0,-18.0,-32.0,4000.0,2319.0,1205.0,-1644.0
-67.0,-137.0,3.0,-11.0,4000.0,3070.0,1326.0,-1456.0
-3.0,-33.0,9.0,-7.0,4000.0,3593.0,1378.0,-1339.0
13.0,13.0,55.0,29.0,4000.0,4000.0,1474.0,-1180.0
7.0,117.0,68.0,-27.0,4000.0,4000.0,1333.0,-997.0
6.0,194.0,12.0,-104.0,4000.0,4000.0,1084.0,-809.0
4.0,168.0,50.0,-76.0,4000.0,4000.0,767.0,-583.0
13.0,69.0,60.0,-46.0,4000.0,4000.0,45.0,-317.0
10.0,-24.0,107.0,-55.0,4000.0,3007.0,-485.0,-44.0
6.0,-31.0,177.0,16.0,4000.0,1669.0,-1011.0,151.0
-39.0,25.0,150.0,106.0,4000.0,232.0,-1462.0,255.0
-60.0,152.0,134.0,125.0,4000.0,-1265.0,-1332.0,255.0
-41.0,157.0,77.0,98.0,4000.0,-2854.0,-861.0,265.0
-41.0,80.0,62.0,47.0,4000.0,-3748.0,-208.0,334.0
-35.0,25.0,65.0,73.0,4000.0,-3840.0,-45.0,342.0
-52.0,-14.0,36.0,61.0,4000.0,-3387.0,201.0,267.0
-34.0,46.0,10.0,-24.0,3729.0,-2451.0,669.0,176.0
6.0,41.0,-9.0,-63.0,2878.0,-1316.0,376.0,33.0
-11.0,-58.0,28.0,-92.0,2251.0,-244.0,24.0,-161.0
-42.0,-94.0,9.0,-147.0,1901.0,758.0,-208.0,-301.0
-41.0,-94.0,-20.0,-151.0,1018.0,1344.0,-538.0,-366.0
-39.0,-40.0,-53.0,-191.0,-1114.0,1482.0,-587.0,-366.0
-44.0,-29.0,-38.0,-193.0,-4000.0,1312.0,-489.0,-360.0
-32.0,-39.0,46.0,-123.0,-4000.0,837.0,-388.0,-301.0
-23.0,-28.0,23.0,-161.0,-4000.0,260.0,-327.0,-232.0
-25.0,-63.0,7.0,-162.0,-4000.0,-344.0,-401.0,-136.0
-59.0,-66.0,-9.0,-113.0,-4000.0,-680.0,-383.0,108.0
-51.0,-95.0,36.0,-65.0,-4000.0,-779.0,-277.0,334.0
-16.0,-121.0,18.0,-10.0,-4000.0,-733.0,-95.0,536.0
-48.0,-163.0,-40.0,32.0,-4000.0,-550.0,167.0,745.0
-53.0,-110.0,-66.0,45.0,-4000.0,-205.0,364.0,941.0
-30.0,-31.0,-94.0,47.0,-4000.0,338.0,409.0,1142.0
-27.0,-8.0,-44.0,55.0,-4000.0,766.0,201.0,1207.0
-32.0,106.0,-82.0,17.0,-4000.0,1033.0,54.0,1221.0
-8.0,251.0,-49.0,-9.0,-4000.0,1163.0,225.0,1207.0
6.0,212.0,-49.0,-3.0,-4000.0,1148.0,439.0,1053.0
6.0,10.0,-53.0,55.0,-4000.0,1124.0,532.0,914.0
8.0,-169.0,-65.0,199.0,-4000.0,1179.0,413.0,850.0
-4.0,-271.0,-76.0,129.0,-4000.0,1193.0,291.0,808.0
12.0,-128.0,-49.0,-191.0,-1606.0,1026.0,148.0,751.0
26.0,-57.0,-38.0,-222.0,1983.0,860.0,37.0,634.0
10.0,-104.0,-28.0,-123.0,4000.0,684.0,11.0,563.0
15.0,66.0,-89.0,-66.0,4000.0,551.0,-159.0,556.0
43.0,170.0,-60.0,-8.0,4000.0,494.0,-241.0,590.0
44.0,241.0,-32.0,-14.0,4000.0,490.0,-424.0,589.0
20.0,327.0,-57.0,45.0,4000.0,570.0,-646.0,526.0
0.0,270.0,-41.0,113.0,4000.0,616.0,-594.0,438.0
-8.0,199.0,-49.0,193.0,4000.0,771.0,-527.0,465.0
-12.0,172.0,-75.0,182.0,4000.0,1018.0,-510.0,460.0
5.0,147.0,-47.0,105.0,4000.0,1214.0,-513.0,438.0
40.0,194.0,-35.0,95.0,4000.0,1466.0,-565.0,531.0
-12.0,160.0,-34.0,110.0,4000.0,1657.0,-686.0,692.0
-44.0,24.0,-12.0,22.0,4000.0,1669.0,-811.0,739.0
-9.0,-28.0,-10.0,-21.0,4000.0,1734.0,-855.0,615.0
3.0,-20.0,-12.0,-37.0,4000.0,1864.0,-998.0,491.0
4.0,-13.0,4.0,44.0,4000.0,1864.0,-941.0,369.0
1.0,-5.0,16.0,221.0,4000.0,1872.0,-729.0,334.0
7.0,0.0,-14.0,168.0,4000.0,1786.0,-711.0,308.0
15.0,-26.0,-55.0,20.0,4000.0,1510.0,-802.0,329.0
-9.0,-32.0,-54.0,-2.0,4000.0,1292.0,-986.0,409.0
-24.0,21.0,-46.0,-69.0,4000.0,1083.0,-1107.0,490.0
-3.0,19.0,-82.0,-90.0,4000.0,831.0,-1184.0,503.0
-23.0,3.0,-123.0,-96.0,4000.0,480.0,-1178.0,612.0
-17.0,13.0,-133.0,-163.0,4000.0,107.0,-1006.0,629.0
-13.0,-3.0,-128.0,-220.0,4000.0,-113.0,-941.0,519.0
-28.0,74.0,-109.0,-297.0,4000.0,-297.0,-1051.0,503.0
-8.0,128.0,-61.0,-220.0,4000.0,-516.0,-1185.0,453.0
-23.0,1.0,33.0,-178.0,4000.0,-607.0,-1258.0,394.0
4.0,-72.0,120.0,-168.0,4000.0,-685.0,-1271.0,341.0
-26.0,-137.0,144.0,-28.0,4000.0,-741.0,-1142.0,334.0
-70.0,-293.0,101.0,20.0,4000.0,-761.0,-1104.0,355.0
-31.0,-333.0,67.0,90.0,4000.0,-778.0,-1141.0,361.0
-66.0,-247.0,47.0,144.0,4000.0,-786.0,-1206.0,304.0
-49.0,-202.0,-18.0,116.0,4000.0,-836.0,-1246.0,238.0
-17.0,-236.0,-70.0,99.0,4000.0,-810.0,-1184.0,134.0
-31.0,-159.0,-133.0,81.0,4000.0,-816.0,-1119.0,-16.0
-36.0,-85.0,-129.0,59.0,4000.0,-867.0,-977.0,-134.0
-40.0,-10.0,-113.0,-24.0,3208.0,-838.0,-876.0,-248.0
-18.0,50.0,-52.0,-77.0,367.0,-796.0,-802.0,-295.0
-5.0,110.0,34.0,-249.0,-2409.0,-873.0,-706.0,-348.0
16.0,124.0,-49.0,-375.0,-4000.0,-985.0,-664.0,-423.0
41.0,93.0,-26.0,-227.0,-4000.0,-1047.0,-587.0,-443.0
36.0,176.0,16.0,-214.0,-4000.0,-1140.0,-420.0,-457.0
-23.0,160.0,-92.0,-160.0,-4000.0,-1183.0,-224.0,-506.0
-31.0,162.0,-88.0,-86.0,-4000.0,-1242.0,-197.0,-590.0
-62.0,90.0,-88.0,-83.0,-4000.0,-1330.0,-238.0,-627.0
-70.0,-38.0,-104.0,-69.0,-4000.0,-1308.0,-113.0,-659.0
-107.0,-122.0,-129.0,-155.0,-4000.0,-1200.0,-108.0,-683.0
-112.0,-151.0,-66.0,-220.0,-4000.0,-1140.0,-214.0,-679.0
-50.0,-111.0,17.0,-391.0,-4000.0,-1054.0,-146.0,-673.0
-64.0,-117.0,17.0,-385.0,-4000.0,-945.0,-140.0,-724.0
-37.0,-100.0,24.0,-154.0,-4000.0,-932.0,-286.0,-789.0
-63.0,-110.0,-32.0,170.0,-4000.0,-881.0,-306.0,-859.0
-56.0,-121.0,-29.0,455.0,-4000.0,-816.0,-182.0,-948.0
-49.0,-108.0,10.0,320.0,-4000.0,-715.0,-90.0,-1005.0
-68.0,-111.0,-9.0,229.0,-4000.0,-672.0,48.0,-1005.0
-56.0,-151.0,-33.0,112.0,-4000.0,-645.0,143.0,-979.0
-74.0,-106.0,-24.0,28.0,-4000.0,-641.0,162.0,-918.0
-24.0,162.0,-6.0,84.0,-4000.0,-676.0,172.0,-875.0
28.0,290.0,-33.0,-14.0,-4000.0,-615.0,104.0,-818.0
36.0,94.0,-60.0,48.0,-4000.0,-565.0,97.0,-738.0
33.0,13.0,-33.0,256.0,-4000.0,-555.0,238.0,-620.0
42.0,-56.0,4.0,244.0,-4000.0,-591.0,498.0,-549.0
2.0,-105.0,-22.0,-143.0,-4000.0,-575.0,742.0,-484.0
-9.0,-142.0,-44.0,-208.0,-4000.0,-556.0,897.0,-431.0
5.0,-326.0,-29.0,-316.0,-4000.0,-555.0,903.0,-435.0
-3.0,-346.0,-61.0,-473.0,-4000.0,-511.0,832.0,-348.0
21.0,-494.0,-95.0,-361.0,-1606.0,-645.0,772.0,-301.0
47.0,-662.0,-64.0,-301.0,1183.0,-786.0,753.0,-265.0
50.0,-401.0,54.0,-57.0,3794.0,-832.0,765.0,-188.0
55.0,-152.0,113.0,139.0,4000.0,-932.0,791.0,-111.0
27.0,-42.0,81.0,276.0,4000.0,-1054.0,823.0,-42.0
27.0,214.0,71.0,276.0,4000.0,-1112.0,693.0,21.0
93.0,533.0,101.0,305.0,4000.0,-1075.0,600.0,82.0
66.0,652.0,135.0,382.0,4000.0,-1135.0,439.0,74.0
42.0,583.0,104.0,287.0,4000.0,-1532.0,238.0,79.0
48.0,556.0,83.0,251.0,4000.0,-2156.0,144.0,43.0
36.0,556.0,81.0,211.0,4000.0,-2167.0,220.0,28.0
66.0,507.0,54.0,152.0,4000.0,-1550.0,394.0,61.0
18.0,305.0,27.0,76.0,4000.0,-676.0,309.0,92.0
13.0,189.0,14.0,44.0,4000.0,416.0,283.0,247.0
54.0,199.0,37.0,144.0,4000.0,1163.0,217.0,396.0
24.0,217.0,1.0,134.0,4000.0,1798.0,149.0,580.0
4.0,240.0,-33.0,67.0,4000.0,2319.0,191.0,817.0
17.0,140.0,-2.0,109.0,4000.0,2356.0,200.0,1077.0
39.0,77.0,-2.0,130.0,4000.0,2034.0,207.0,1241.0
-4.0,108.0,-10.0,-2.0,4000.0,1527.0,113.0,1307.0
-4.0,-11.0,-40.0,-80.0,4000.0,1263.0,51.0,1308.0
17.0,-202.0,-40.0,-147.0,4000.0,1117.0,54.0,1272.0
-17.0,-202.0,-39.0,-263.0,4000.0,1222.0,137.0,1272.0
0.0,-198.0,10.0,-276.0,4000.0,1390.0,319.0,1183.0
7.0,-174.0,29.0,-300.0,4000.0,1330.0,301.0,1128.0
-10.0,-83.0,43.0,-289.0,4000.0,1292.0,113.0,1112.0
1.0,38.0,38.0,-227.0,4000.0,1254.0,271.0,1026.0
4.0,91.0,-38.0,-196.0,4000.0,1222.0,412.0,961.0
6.0,73.0,-30.0,-163.0,3837.0,1189.0,350.0,912.0
-17.0,41.0,-11.0,-65.0,3215.0,1163.0,259.0,811.0
-39.0,27.0,14.0,-30.0,2776.0,1124.0,210.0,719.0
-13.0,36.0,19.0,-33.0,2578.0,1033.0,249.0,499.0
-29.0,-47.0,11.0,10.0,2225.0,1026.0,220.0,228.0
-39.0,-34.0,-3.0,-64.0,1800.0,1033.0,164.0,-19.0
-38.0,-54.0,-20.0,-168.0,1182.0,1124.0,-56.0,-297.0
-49.0,-98.0,-34.0,-174.0,428.0,1204.0,-204.0,-496.0
-50.0,-114.0,-49.0,-147.0,-425.0,1279.0,-106.0,-655.0
-53.0,-182.0,-14.0,-68.0,-775.0,1344.0,-30.0,-736.0
-33.0,-149.0,24.0,29.0,-364.0,1409.0,-20.0,-687.0
4.0,-134.0,28.0,-49.0,-775.0,1521.0,-41.0,-646.0
-12.0,-155.0,-6.0,-43.0,-1711.0,1525.0,-102.0,-610.0
-25.0,-118.0,-32.0,77.0,-1833.0,1482.0,-159.0,-536.0
15.0,-77.0,-49.0,80.0,-2419.0,1466.0,-48.0,-466.0
8.0,-64.0,-73.0,-57.0,-2753.0,1405.0,89.0,-370.0
-21.0,-29.0,-106.0,-106.0,-2977.0,1378.0,28.0,-276.0
-50.0,-35.0,-171.0,83.0,-3753.0,1333.0,-42.0,-236.0
-43.0,-44.0,-206.0,203.0,-4000.0,1266.0,-134.0,-199.0
-37.0,-39.0,-188.0,204.0,-4000.0,1193.0,-161.0,-242.0
-55.0,-18.0,-79.0,-28.0,-4000.0,1118.0,-74.0,-262.0
-44.0,10.0,-48.0,-173.0,-4000.0,961.0,-17.0,-219.0
-46.0,-4.0,-66.0,-107.0,-4000.0,746.0,40.0,-235.0
-68.0,-53.0,59.0,-104.0,-4000.0,563.0,140.0,-221.0
-55.0,-81.0,280.0,34.0,-4000.0,391.0,181.0,-189.0
-22.0,-44.0,343.0,160.0,-4000.0,246.0,148.0,-175.0
25.0,-46.0,266.0,149.0,-4000.0,91.0,124.0,-138.0
21.0,-2.0,195.0,144.0,466.0,-55.0,149.0,-109.0
12.0,77.0,100.0,177.0,4000.0,-190.0,214.0,-99.0
37.0,43.0,83.0,167.0,4000.0,-326.0,243.0,-73.0
-8.0,15.0,71.0,169.0,4000.0,-383.0,262.0,-52.0
-32.0,71.0,-15.0,116.0,4000.0,-485.0,221.0,-38.0
-23.0,135.0,-72.0,-18.0,4000.0,-607.0,120.0,-23.0
-27.0,84.0,-61.0,-41.0,4000.0,-716.0,86.0,47.0
-43.0,6.0,-48.0,-41.0,4000.0,-789.0,89.0,148.0
-40.0,-19.0,-78.0,-8.0,880.0,-875.0,56.0,225.0
-19.0,1.0,-81.0,22.0,-3521.0,-1004.0,-7.0,312.0
-19.0,60.0,-68.0,-16.0,-4000.0,-1122.0,-79.0,425.0
-18.0,36.0,-33.0,8.0,-4000.0,-1247.0,-37.0,491.0
-1.0,18.0,-16.0,-12.0,-4000.0,-1357.0,78.0,461.0
32.0,43.0,-34.0,-18.0,-4000.0,-1489.0,19.0,341.0
25.0,34.0,-33.0,-4.0,-4000.0,-1585.0,-43.0,276.0
50.0,55.0,-8.0,-6.0,-4000.0,-1701.0,-54.0,269.0
25.0,14.0,1.0,2.0,-4000.0,-1799.0,-104.0,174.0
-24.0,10.0,-18.0,-15.0,-4000.0,-1896.0,-120.0,51.0
-7.0,22.0,-3.0,-18.0,-4000.0,-1988.0,-138.0,-18.0
-12.0,40.0,-9.0,-78.0,-4000.0,-1961.0,-140.0,189.0
-18.0,39.0,-27.0,-122.0,-4000.0,-1912.0,-110.0,269.0
-2.0,-11.0,47.0,-279.0,-4000.0,-1715.0,-76.0,213.0
24.0,23.0,47.0,-393.0,-4000.0,-1444.0,-38.0,136.0
-11.0,-33.0,-61.0,-196.0,-4000.0,-1227.0,-40.0,-129.0
-2.0,-26.0,-70.0,-130.0,-4000.0,-1062.0,-26.0,63.0
16.0,-22.0,-53.0,-247.0,-2537.0,-1005.0,-15.0,515.0
11.0,-53.0,-98.0,-332.0,-1588.0,-971.0,33.0,742.0
-23.0,-43.0,-76.0,-344.0,-1170.0,-932.0,67.0,817.0
-58.0,-58.0,-50.0,-256.0,-833.0,-854.0,14.0,870.0
-46.0,-71.0,-35.0,-49.0,-99.0,-685.0,14.0,882.0
-74.0,-53.0,-24.0,105.0,1340.0,-529.0,-60.0,751.0
2.0,10.0,-24.0,205.0,2441.0,-312.0,-113.0,707.0
67.0,11.0,-32.0,220.0,3346.0,-194.0,-97.0,674.0
65.0,5.0,-28.0,164.0,4000.0,-71.0,-55.0,528.0
85.0,26.0,-11.0,366.0,4000.0,105.0,46.0,239.0
82.0,47.0,-63.0,442.0,4000.0,248.0,4.0,-10.0
71.0,46.0,-173.0,356.0,4000.0,374.0,-47.0,-145.0
28.0,45.0,-263.0,223.0,4000.0,462.0,-49.0,-268.0
-6.0,49.0,-242.0,187.0,4000.0,534.0,-55.0,-315.0
15.0,66.0,-190.0,128.0,4000.0,532.0,-33.0,-449.0
126.0,79.0,-101.0,10.0,4000.0,641.0,-42.0,-534.0
119.0,105.0,-57.0,11.0,4000.0,803.0,-41.0,-572.0
27.0,131.0,-6.0,-26.0,3679.0,831.0,-69.0,-562.0
-8.0,99.0,96.0,-13.0,1466.0,812.0,-94.0,-562.0
-102.0,102.0,146.0,-15.0,-877.0,808.0,-106.0,-671.0
-140.0,52.0,207.0,-12.0,-2688.0,823.0,-75.0,-818.0
-135.0,30.0,187.0,-99.0,-4000.0,651.0,-107.0,-889.0
-148.0,20.0,272.0,-157.0,-4000.0,376.0,-135.0,-940.0
-96.0,-4.0,400.0,-80.0,-4000.0,172.0,-110.0,-1018.0
-20.0,-10.0,225.0,-57.0,-4000.0,172.0,-187.0,-1078.0
1.0,-18.0,53.0,-54.0,-4000.0,392.0,-130.0,-1123.0
-48.0,-39.0,54.0,-86.0,-4000.0,445.0,11.0,-1083.0
-150.0,-55.0,21.0,-102.0,-4000.0,528.0,177.0,-1135.0
-196.0,-30.0,24.0,-151.0,-4000.0,404.0,215.0,-1148.0
-64.0,-34.0,73.0,-123.0,-4000.0,109.0,101.0,-974.0
-32.0,-28.0,150.0,-20.0,-4000.0,24.0,51.0,-651.0
-31.0,-41.0,140.0,-10.0,-4000.0,-6.0,-65.0,-370.0
-48.0,-68.0,-25.0,-54.0,-4000.0,83.0,-159.0,-411.0
-55.0,-137.0,4.0,0.0,-4000.0,183.0,-142.0,-983.0
72.0,-83.0,11.0,85.0,-4000.0,329.0,30.0,-1430.0
163.0,7.0,-177.0,-33.0,-4000.0,706.0,225.0,-1324.0
245.0,22.0,-258.0,-80.0,-4000.0,961.0,274.0,-883.0
183.0,-8.0,-350.0,-76.0,-4000.0,876.0,170.0,-687.0
114.0,-101.0,-373.0,-137.0,-4000.0,766.0,69.0,-776.0
131.0,-94.0,-257.0,-116.0,-4000.0,602.0,26.0,-794.0
228.0,-73.0,26.0,-28.0,-4000.0,542.0,94.0,-859.0
291.0,-50.0,251.0,4.0,-4000.0,544.0,210.0,-400.0
371.0,-39.0,303.0,-30.0,-3408.0,480.0,199.0,-96.0
529.0,17.0,253.0,-116.0,-2611.0,244.0,197.0,2.0
371.0,70.0,126.0,-263.0,-1489.0,-41.0,195.0,344.0
-11.0,34.0,63.0,-263.0,-291.0,-42.0,213.0,564.0
-237.0,19.0,-21.0,-260.0,615.0,-68.0,248.0,700.0
-386.0,63.0,-9.0,-131.0,1824.0,12.0,181.0,526.0
-535.0,130.0,-132.0,-31.0,2955.0,-50.0,183.0,349.0
-474.0,188.0,-263.0,-39.0,4000.0,-93.0,220.0,304.0
-428.0,205.0,-212.0,138.0,4000.0,106.0,200.0,390.0
-388.0,138.0,-190.0,182.0,4000.0,155.0,219.0,456.0
-386.0,46.0,-228.0,207.0,4000.0,126.0,225.0,536.0
-436.0,-66.0,-414.0,223.0,4000.0,162.0,188.0,569.0
-392.0,-201.0,-414.0,223.0,4000.0,180.0,126.0,550.0
-319.0,-179.0,-94.0,260.0,4000.0,200.0,122.0,613.0
-309.0,-121.0,140.0,203.0,4000.0,248.0,75.0,556.0
-490.0,-118.0,104.0,-28.0,4000.0,259.0,89.0,515.0
-388.0,-73.0,110.0,-198.0,4000.0,170.0,178.0,491.0
-145.0,-66.0,284.0,-173.0,4000.0,152.0,86.0,536.0
-75.0,-31.0,459.0,-133.0,4000.0,193.0,-17.0,612.0
39.0,-16.0,560.0,-134.0,4000.0,163.0,-90.0,666.0
134.0,41.0,567.0,-161.0,4000.0,176.0,-62.0,778.0
240.0,140.0,663.0,-71.0,4000.0,-90.0,7.0,955.0
408.0,220.0,694.0,-33.0,4000.0,-276.0,-4.0,1053.0
505.0,328.0,562.0,96.0,4000.0,-293.0,-25.0,1026.0
530.0,256.0,450.0,229.0,4000.0,-362.0,-98.0,1085.0
517.0,140.0,238.0,222.0,4000.0,-221.0,-182.0,1150.0
399.0,30.0,26.0,174.0,4000.0,-287.0,29.0,1085.0
378.0,-107.0,-198.0,103.0,4000.0,-331.0,429.0,1004.0
382.0,-236.0,-481.0,20.0,4000.0,-289.0,702.0,1026.0
269.0,-307.0,-801.0,-45.0,3867.0,-68.0,416.0,1020.0
204.0,-247.0,-1007.0,-26.0,3682.0,299.0,43.0,947.0
162.0,-195.0,-1166.0,-201.0,3037.0,203.0,83.0,853.0
86.0,-125.0,-1008.0,-232.0,2386.0,37.0,-167.0,825.0
114.0,1.0,-389.0,-120.0,2225.0,-18.0,-252.0,831.0
295.0,58.0,14.0,-109.0,2254.0,90.0,-196.0,751.0
178.0,69.0,301.0,-37.0,2513.0,169.0,-390.0,710.0
-154.0,95.0,636.0,-88.0,2556.0,158.0,-534.0,677.0
-422.0,47.0,541.0,-237.0,2485.0,289.0,-794.0,677.0
-634.0,-112.0,146.0,-373.0,2776.0,497.0,-976.0,686.0
-502.0,-169.0,-63.0,-385.0,3623.0,749.0,-802.0,601.0
-296.0,-104.0,-37.0,-342.0,3733.0,693.0,-238.0,536.0
-128.0,-80.0,160.0,-226.0,2485.0,480.0,412.0,525.0
2.0,-10.0,256.0,-32.0,843.0,439.0,779.0,499.0
64.0,92.0,248.0,42.0,-968.0,368.0,927.0,442.0
169.0,151.0,147.0,-8.0,-2977.0,256.0,1084.0,326.0
212.0,248.0,263.0,-7.0,-4000.0,-51.0,921.0,267.0
240.0,280.0,402.0,85.0,-4000.0,-394.0,824.0,156.0
163.0,228.0,316.0,158.0,-4000.0,-620.0,1194.0,10.0
147.0,200.0,265.0,299.0,-4000.0,-977.0,954.0,-199.0
131.0,160.0,133.0,459.0,-4000.0,-1070.0,772.0,-517.0
-75.0,24.0,59.0,512.0,-4000.0,-920.0,954.0,-730.0
-417.0,-93.0,55.0,559.0,-4000.0,-900.0,1135.0,-992.0
-620.0,-80.0,-74.0,337.0,-4000.0,-1103.0,1467.0,-1148.0
-599.0,-85.0,-139.0,-98.0,-4000.0,-1026.0,1214.0,-1206.0
-441.0,-72.0,-70.0,-263.0,-4000.0,-977.0,661.0,-1208.0
-40.0,86.0,-9.0,-237.0,-4000.0,-1127.0,102.0,-1114.0
166.0,116.0,-187.0,-195.0,-4000.0,-988.0,-418.0,-883.0
228.0,15.0,-310.0,-462.0,-4000.0,-715.0,-477.0,-386.0
315.0,-36.0,-163.0,-660.0,-4000.0,-517.0,159.0,222.0
316.0,-98.0,-72.0,-352.0,-3728.0,-586.0,591.0,569.0
342.0,-282.0,-1.0,-132.0,-4000.0,-501.0,62.0,725.0
92.0,-732.0,89.0,64.0,-4000.0,-262.0,-276.0,850.0
-50.0,-811.0,53.0,47.0,-4000.0,10.0,-266.0,817.0
44.0,-527.0,27.0,93.0,-4000.0,412.0,26.0,778.0
76.0,-293.0,85.0,388.0,-4000.0,766.0,563.0,645.0
97.0,-38.0,31.0,337.0,-4000.0,1157.0,490.0,266.0
65.0,37.0,360.0,209.0,-4000.0,1531.0,42.0,-2.0
47.0,173.0,866.0,149.0,-4000.0,1919.0,-500.0,-279.0
66.0,289.0,415.0,142.0,1183.0,2373.0,-1228.0,-599.0
162.0,347.0,-320.0,162.0,4000.0,2775.0,-1735.0,-622.0
251.0,395.0,-707.0,109.0,4000.0,3101.0,-1853.0,-525.0
77.0,395.0,-709.0,110.0,4000.0,3333.0,-1551.0,-518.0
-48.0,380.0,-403.0,71.0,4000.0,3474.0,-1318.0,-492.0
-112.0,315.0,-344.0,44.0,4000.0,3528.0,-1264.0,-431.0
-346.0,256.0,-239.0,10.0,4000.0,3463.0,-1136.0,-397.0
-354.0,135.0,227.0,69.0,4000.0,3231.0,-1317.0,-305.0
-502.0,131.0,520.0,137.0,4000.0,2759.0,-1377.0,-232.0
-605.0,117.0,-106.0,140.0,4000.0,2084.0,-1380.0,-223.0
-513.0,41.0,-564.0,161.0,4000.0,1462.0,-1312.0,-284.0
-306.0,68.0,-667.0,145.0,4000.0,933.0,-1108.0,-262.0
185.0,170.0,-931.0,142.0,4000.0,412.0,-1184.0,-257.0
346.0,254.0,-898.0,67.0,4000.0,124.0,-1448.0,-362.0
172.0,305.0,-547.0,57.0,4000.0,19.0,-1503.0,-496.0
89.0,316.0,-152.0,109.0,-612.0,-163.0,-420.0,-352.0
100.0,300.0,-190.0,128.0,-4000.0,-468.0,999.0,-44.0
-82.0,228.0,-228.0,187.0,-4000.0,-1062.0,1705.0,-55.0
-120.0,111.0,-72.0,182.0,-4000.0,-1880.0,1667.0,-216.0
-111.0,-27.0,77.0,99.0,-4000.0,-2534.0,746.0,-275.0
-120.0,-295.0,170.0,-19.0,-4000.0,-2884.0,-255.0,-166.0
-4.0,-444.0,8.0,-141.0,-4000.0,-3336.0,-1710.0,79.0
-5.0,-593.0,-49.0,-263.0,-4000.0,-3852.0,-2610.0,536.0
77.0,-619.0,79.0,-332.0,-4000.0,-4000.0,-2009.0,1131.0
190.0,-440.0,152.0,-310.0,-4000.0,-4000.0,-1388.0,1391.0
195.0,-304.0,158.0,-312.0,-103.0,-4000.0,-927.0,1260.0
186.0,-140.0,75.0,-322.0,4000.0,-4000.0,-336.0,1207.0
134.0,-86.0,39.0,-462.0,4000.0,-4000.0,201.0,1252.0
62.0,-33.0,-158.0,-615.0,4000.0,-4000.0,871.0,1085.0
27.0,135.0,-138.0,-409.0,4000.0,-4000.0,1190.0,713.0
5.0,290.0,-104.0,-251.0,4000.0,-4000.0,201.0,318.0
3.0,240.0,-282.0,-206.0,4000.0,-4000.0,-713.0,-248.0
-74.0,80.0,-265.0,-234.0,4000.0,-4000.0,-1011.0,-846.0
-97.0,-27.0,-243.0,-253.0,4000.0,-4000.0,-1651.0,-1191.0
-83.0,-142.0,-123.0,-161.0,-3753.0,-4000.0,-2610.0,-1518.0
-110.0,-144.0,72.0,-163.0,-4000.0,-4000.0,-3314.0,-1709.0
-64.0,-125.0,212.0,-140.0,-4000.0,-4000.0,-3733.0,-1970.0
-27.0,-86.0,212.0,-145.0,-4000.0,-4000.0,-3147.0,-2187.0
-5.0,-94.0,95.0,-110.0,-4000.0,-4000.0,-774.0,-2163.0
3.0,-118.0,34.0,10.0,-4000.0,-3879.0,824.0,-2218.0
31.0,-42.0,26.0,75.0,-4000.0,-3323.0,1027.0,-2277.0
64.0,40.0,-39.0,67.0,-4000.0,-2754.0,681.0,-2362.0
20.0,37.0,-103.0,45.0,-4000.0,-2209.0,-202.0,-2478.0
-20.0,-63.0,-252.0,46.0,-4000.0,-1651.0,-120.0,-2375.0
36.0,-44.0,-385.0,55.0,-4000.0,-875.0,543.0,-2231.0
291.0,-3.0,-363.0,69.0,-4000.0,90.0,889.0,-1998.0
699.0,22.0,-234.0,116.0,-4000.0,998.0,1205.0,-1641.0
719.0,6.0,-97.0,145.0,-4000.0,1917.0,1993.0,-1274.0
387.0,30.0,-28.0,142.0,-4000.0,2840.0,2322.0,-973.0
293.0,117.0,160.0,205.0,-4000.0,3666.0,2514.0,-748.0
-73.0,146.0,337.0,272.0,-4000.0,4000.0,2582.0,-605.0
-476.0,142.0,447.0,280.0,-3988.0,4000.0,1971.0,-467.0
-560.0,121.0,438.0,197.0,-1534.0,4000.0,1670.0,-232.0
-649.0,121.0,378.0,88.0,2124.0,4000.0,551.0,-32.0
-482.0,27.0,385.0,-29.0,4000.0,4000.0,-455.0,93.0
-327.0,4.0,402.0,-102.0,4000.0,4000.0,-1551.0,406.0
-258.0,-8.0,360.0,-71.0,4000.0,4000.0,-2675.0,831.0
-136.0,-15.0,259.0,-37.0,4000.0,4000.0,-2659.0,1337.0
-89.0,-65.0,204.0,32.0,4000.0,4000.0,-2270.0,1621.0
-48.0,-72.0,125.0,93.0,4000.0,4000.0,-450.0,1714.0
15.0,68.0,70.0,149.0,4000.0,4000.0,1628.0,1818.0
20.0,83.0,50.0,144.0,4000.0,4000.0,3216.0,1846.0
-48.0,144.0,3.0,132.0,4000.0,4000.0,4000.0,1859.0
-49.0,168.0,-160.0,161.0,4000.0,4000.0,3665.0,1842.0
-36.0,200.0,-211.0,142.0,4000.0,4000.0,2746.0,1859.0
-67.0,191.0,33.0,74.0,4000.0,4000.0,3347.0,1724.0
-90.0,139.0,215.0,8.0,3464.0,3835.0,3734.0,1521.0
-64.0,106.0,337.0,81.0,-532.0,3539.0,3021.0,1207.0
-12.0,64.0,446.0,34.0,-4000.0,3148.0,2125.0,808.0
47.0,74.0,523.0,-28.0,-4000.0,2840.0,1019.0,645.0
67.0,38.0,504.0,-50.0,-4000.0,2440.0,485.0,491.0
102.0,75.0,345.0,-100.0,-4000.0,2190.0,-108.0,556.0
134.0,93.0,278.0,-82.0,-4000.0,2159.0,-176.0,601.0
80.0,58.0,230.0,-139.0,-4000.0,1854.0,-532.0,775.0
12.0,98.0,241.0,-163.0,-4000.0,1474.0,-1141.0,1003.0
-43.0,134.0,205.0,-165.0,-4000.0,1163.0,-1071.0,1150.0
-50.0,151.0,104.0,-161.0,-4000.0,1083.0,-685.0,1372.0
-32.0,189.0,85.0,-125.0,-2595.0,1124.0,-351.0,1513.0
6.0,200.0,41.0,-112.0,505.0,1163.0,441.0,1704.0
47.0,122.0,-78.0,-82.0,4000.0,1092.0,1353.0,1924.0
125.0,34.0,-200.0,-60.0,4000.0,870.0,1223.0,2159.0
54.0,-167.0,-209.0,-2.0,4000.0,506.0,819.0,2154.0
-49.0,-403.0,-255.0,50.0,4000.0,93.0,871.0,2078.0
147.0,-383.0,-334.0,116.0,4000.0,-289.0,2308.0,2225.0
495.0,-273.0,-365.0,183.0,4000.0,-584.0,3400.0,2300.0
495.0,-226.0,-413.0,196.0,4000.0,-615.0,3860.0,2118.0
243.0,-182.0,-409.0,197.0,4000.0,-750.0,4000.0,1924.0
125.0,-159.0,-393.0,164.0,4000.0,-1248.0,4000.0,1660.0
-53.0,-131.0,-343.0,146.0,4000.0,-1440.0,2879.0,1242.0
-121.0,-50.0,-218.0,104.0,4000.0,-1440.0,2387.0,745.0
-62.0,56.0,-89.0,50.0,4000.0,-1290.0,1734.0,160.0
-74.0,147.0,55.0,15.0,4000.0,-1184.0,1007.0,-360.0
-140.0,135.0,149.0,-105.0,4000.0,-1302.0,420.0,-779.0
-181.0,69.0,68.0,-184.0,4000.0,-1200.0,243.0,-1078.0
-188.0,73.0,-18.0,-247.0,4000.0,-1166.0,-373.0,-1440.0
-190.0,116.0,-15.0,-220.0,4000.0,-1005.0,-923.0,-1734.0
-190.0,-59.0,-70.0,-119.0,4000.0,-875.0,-729.0,-1885.0
-157.0,-232.0,-88.0,-107.0,4000.0,-783.0,-565.0,-1997.0
-67.0,-163.0,-52.0,-101.0,4000.0,-703.0,-737.0,-2024.0
-94.0,-166.0,-5.0,-107.0,4000.0,-620.0,-826.0,-2050.0
-162.0,-295.0,124.0,-109.0,4000.0,-555.0,-475.0,-2193.0
-113.0,-253.0,252.0,-148.0,-346.0,-663.0,-811.0,-2519.0
18.0,-169.0,188.0,-200.0,-3380.0,-912.0,-1011.0,-2812.0
-8.0,-258.0,102.0,-177.0,-3929.0,-1314.0,-485.0,-3024.0
-52.0,-282.0,-126.0,-216.0,-3132.0,-1623.0,-406.0,-3268.0
-33.0,-282.0,-232.0,-348.0,-1638.0,-1975.0,-247.0,-3414.0
-75.0,-170.0,-158.0,-397.0,-350.0,-2433.0,-143.0,-3581.0
-61.0,-40.0,-283.0,-409.0,270.0,-2839.0,-117.0,-3667.0
-80.0,-34.0,-110.0,-287.0,200.0,-3188.0,-124.0,-3647.0
-109.0,25.0,227.0,-61.0,-392.0,-3470.0,-399.0,-3480.0
-193.0,87.0,410.0,-40.0,-1441.0,-3698.0,-459.0,-3191.0
-186.0,355.0,480.0,-86.0,-2356.0,-3813.0,-522.0,-2930.0
-142.0,542.0,394.0,-98.0,-3923.0,-3799.0,-1323.0,-2617.0
-179.0,347.0,266.0,-88.0,-4000.0,-3813.0,-1997.0,-2393.0
-94.0,-86.0,105.0,-65.0,-4000.0,-3763.0,-1684.0,-2127.0
27.0,-351.0,-10.0,7.0,-4000.0,-3583.0,-1448.0,-1788.0
143.0,-414.0,-91.0,320.0,-4000.0,-3583.0,-1054.0,-1253.0
263.0,-357.0,-197.0,533.0,-4000.0,-3901.0,-837.0,-643.0
333.0,-206.0,-265.0,95.0,-4000.0,-3946.0,-450.0,-366.0
256.0,-63.0,-247.0,-265.0,-4000.0,-4000.0,590.0,-390.0
175.0,-56.0,-95.0,-312.0,-4000.0,-4000.0,860.0,-714.0
138.0,-90.0,-1.0,-265.0,-4000.0,-3966.0,889.0,-940.0
86.0,205.0,114.0,-106.0,-4000.0,-3518.0,738.0,-1083.0
72.0,382.0,337.0,-24.0,-4000.0,-3128.0,429.0,-999.0
27.0,485.0,438.0,174.0,-2224.0,-2853.0,181.0,-844.0
25.0,517.0,331.0,272.0,1482.0,-2384.0,-515.0,-1018.0
16.0,371.0,141.0,297.0,3788.0,-1831.0,-771.0,-1322.0
-6.0,251.0,77.0,287.0,4000.0,-1198.0,-722.0,-1839.0
-6.0,168.0,130.0,215.0,4000.0,-407.0,-817.0,-2153.0
-16.0,182.0,150.0,142.0,4000.0,404.0,-1487.0,-2283.0
-17.0,163.0,35.0,6.0,4000.0,1063.0,-2028.0,-2441.0
-47.0,152.0,-114.0,-181.0,4000.0,1852.0,-1819.0,-2513.0
-30.0,144.0,-177.0,-121.0,4000.0,2694.0,-1527.0,-2319.0
-20.0,118.0,-118.0,95.0,4000.0,3460.0,-1397.0,-1762.0
-27.0,86.0,-82.0,182.0,4000.0,4000.0,-1388.0,-869.0
-68.0,58.0,-158.0,298.0,4000.0,4000.0,-1397.0,474.0
-67.0,57.0,-122.0,329.0,4000.0,4000.0,-1071.0,1769.0
-4.0,67.0,-110.0,351.0,4000.0,4000.0,21.0,2819.0
81.0,46.0,-86.0,347.0,4000.0,4000.0,81.0,3896.0
408.0,-15.0,-114.0,210.0,4000.0,4000.0,-489.0,4000.0
986.0,-17.0,-225.0,83.0,4000.0,4000.0,-442.0,4000.0
955.0,-7.0,-173.0,72.0,2241.0,4000.0,-846.0,4000.0
277.0,20.0,-125.0,126.0,-599.0,4000.0,-1332.0,4000.0
-24.0,-24.0,-129.0,113.0,-3262.0,4000.0,-2159.0,4000.0
-380.0,-44.0,-108.0,92.0,-4000.0,4000.0,-2549.0,4000.0
-571.0,-7.0,-60.0,40.0,-4000.0,3556.0,-1718.0,4000.0
-620.0,193.0,-15.0,-28.0,-4000.0,2812.0,-966.0,4000.0
-634.0,373.0,-14.0,-53.0,-4000.0,2359.0,-1950.0,4000.0
-510.0,93.0,-119.0,-143.0,-4000.0,1929.0,-3520.0,4000.0
-453.0,-139.0,-175.0,-263.0,-4000.0,1352.0,-3053.0,4000.0
-378.0,-334.0,-96.0,-245.0,-4000.0,1006.0,-1918.0,4000.0
-386.0,-476.0,-9.0,-198.0,-4000.0,788.0,-1189.0,4000.0
-234.0,-402.0,3.0,-196.0,-4000.0,467.0,-594.0,4000.0
-135.0,-371.0,11.0,-84.0,-4000.0,160.0,-646.0,4000.0
-11.0,-134.0,-38.0,-84.0,-4000.0,-109.0,-646.0,4000.0
180.0,85.0,-81.0,-116.0,-4000.0,-371.0,867.0,4000.0
212.0,256.0,-80.0,-130.0,-4000.0,-485.0,2297.0,4000.0
61.0,485.0,-74.0,-171.0,-4000.0,-541.0,2486.0,4000.0
51.0,378.0,-70.0,-140.0,-4000.0,-521.0,2582.0,4000.0
73.0,86.0,-95.0,-133.0,-4000.0,-550.0,1704.0,4000.0
15.0,-11.0,-101.0,-71.0,-4000.0,-595.0,749.0,3198.0
47.0,30.0,-107.0,67.0,-4000.0,-546.0,425.0,1846.0
21.0,70.0,-61.0,167.0,-4000.0,-485.0,-6.0,760.0
49.0,125.0,-47.0,47.0,-4000.0,-442.0,-141.0,-730.0
16.0,-12.0,-38.0,-56.0,-4000.0,-409.0,-124.0,-1762.0
12.0,-338.0,16.0,-66.0,-2010.0,-325.0,49.0,-2346.0
18.0,-440.0,16.0,-173.0,-168.0,-354.0,-475.0,-2937.0
15.0,-423.0,34.0,-265.0,1123.0,-449.0,-1031.0,-3610.0
15.0,-360.0,53.0,-227.0,2776.0,-511.0,-867.0,-4000.0
44.0,-468.0,96.0,-75.0,4000.0,-565.0,-546.0,-4000.0
69.0,-575.0,148.0,34.0,4000.0,-591.0,-796.0,-4000.0
27.0,-505.0,205.0,35.0,4000.0,-721.0,-1749.0,-4000.0
53.0,-438.0,166.0,-175.0,4000.0,-845.0,-1187.0,-4000.0
35.0,-267.0,72.0,-214.0,4000.0,-940.0,374.0,-4000.0
55.0,-107.0,30.0,-179.0,4000.0,-1070.0,1993.0,-4000.0
8.0,33.0,-2.0,-233.0,4000.0,-1235.0,2444.0,-4000.0
1.0,135.0,-7.0,-149.0,4000.0,-1376.0,1060.0,-4000.0
60.0,281.0,-5.0,-18.0,4000.0,-1526.0,1208.0,-4000.0
29.0,316.0,30.0,77.0,4000.0,-1607.0,523.0,-4000.0
35.0,266.0,43.0,152.0,4000.0,-1623.0,-2186.0,-4000.0
46.0,282.0,38.0,272.0,3593.0,-1605.0,-4000.0,-4000.0
80.0,160.0,38.0,243.0,2255.0,-1506.0,-4000.0,-4000.0
50.0,103.0,-1.0,255.0,448.0,-1330.0,-1128.0,-4000.0
30.0,95.0,-38.0,264.0,-1259.0,-1183.0,2179.0,-4000.0
21.0,134.0,-26.0,204.0,-2623.0,-1056.0,1776.0,-4000.0
-8.0,62.0,-36.0,182.0,-3197.0,-836.0,1410.0,-4000.0
37.0,-7.0,-41.0,45.0,-2729.0,-541.0,1908.0,-3926.0
69.0,90.0,-1.0,38.0,-2225.0,-213.0,1770.0,-3688.0
27.0,81.0,-1.0,402.0,-1945.0,54.0,2190.0,-3462.0
17.0,143.0,19.0,356.0,-1784.0,201.0,1840.0,-3253.0
39.0,150.0,24.0,-106.0,-1333.0,341.0,1931.0,-3001.0
25.0,46.0,-20.0,-178.0,-681.0,441.0,1915.0,-2617.0
-19.0,33.0,-6.0,-234.0,37.0,557.0,1522.0,-2189.0
-33.0,74.0,19.0,-232.0,877.0,641.0,1406.0,-1756.0
-23.0,120.0,36.0,-202.0,1124.0,687.0,1129.0,-1274.0
-46.0,105.0,73.0,-208.0,1460.0,734.0,1206.0,-809.0
-25.0,209.0,42.0,-190.0,1865.0,795.0,1158.0,-391.0
-1.0,106.0,15.0,-178.0,2189.0,876.0,1119.0,-164.0
-6.0,-36.0,-47.0,-149.0,2711.0,932.0,999.0,-96.0
-23.0,136.0,-25.0,-159.0,3215.0,933.0,988.0,-13.0
-45.0,122.0,30.0,-84.0,3772.0,880.0,897.0,135.0
-21.0,93.0,-3.0,-49.0,3772.0,815.0,749.0,271.0
-41.0,90.0,-39.0,7.0,3476.0,734.0,687.0,425.0
-36.0,28.0,-106.0,31.0,4000.0,616.0,637.0,601.0
-11.0,62.0,-81.0,75.0,4000.0,469.0,707.0,816.0
-31.0,80.0,-56.0,54.0,4000.0,311.0,604.0,1012.0
-26.0,116.0,-82.0,27.0,4000.0,223.0,539.0,1221.0
-70.0,121.0,-34.0,81.0,4000.0,237.0,478.0,1533.0
-47.0,144.0,77.0,68.0,4000.0,232.0,474.0,1895.0
-22.0,103.0,112.0,56.0,4000.0,155.0,401.0,2302.0
-14.0,6.0,160.0,54.0,4000.0,-37.0,319.0,2705.0
29.0,-43.0,130.0,48.0,4000.0,-234.0,311.0,3065.0
-12.0,-109.0,18.0,-20.0,4000.0,-326.0,220.0,3390.0
-21.0,-133.0,-8.0,-30.0,4000.0,-449.0,184.0,3617.0
14.0,-134.0,-14.0,-19.0,4000.0,-537.0,98.0,3831.0
19.0,-188.0,-60.0,-107.0,4000.0,-594.0,50.0,3977.0
18.0,-209.0,-101.0,-76.0,4000.0,-663.0,-23.0,4000.0
27.0,-151.0,-112.0,-14.0,4000.0,-745.0,-56.0,4000.0
27.0,-32.0,-124.0,-94.0,4000.0,-825.0,-37.0,3987.0
-4.0,-4.0,-112.0,-71.0,4000.0,-856.0,-86.0,3812.0
-13.0,-17.0,-99.0,4.0,4000.0,-875.0,-137.0,3552.0
7.0,-11.0,-75.0,54.0,4000.0,-906.0,-233.0,3326.0
-25.0,-80.0,-65.0,93.0,4000.0,-945.0,-420.0,3031.0
-40.0,-117.0,-54.0,77.0,4000.0,-1010.0,-592.0,2689.0
-63.0,-154.0,-12.0,142.0,4000.0,-1042.0,-620.0,2435.0
-75.0,-137.0,-28.0,49.0,4000.0,-1050.0,-613.0,2225.0
-39.0,-96.0,-63.0,-173.0,4000.0,-1056.0,-579.0,1989.0
-1.0,-92.0,-11.0,-127.0,4000.0,-1053.0,-751.0,1598.0
7.0,-136.0,30.0,-48.0,4000.0,-1057.0,-917.0,1112.0
3.0,-144.0,-2.0,-112.0,4000.0,-1038.0,-845.0,583.0
11.0,134.0,-24.0,-78.0,4000.0,-1005.0,-794.0,51.0
-6.0,233.0,-11.0,-89.0,4000.0,-985.0,-542.0,-472.0
-25.0,36.0,17.0,-83.0,4000.0,-945.0,-449.0,-996.0
-42.0,41.0,14.0,-34.0,4000.0,-926.0,-455.0,-1316.0
-58.0,143.0,-12.0,-3.0,4000.0,-875.0,-224.0,-1469.0
-54.0,256.0,-10.0,-13.0,4000.0,-855.0,48.0,-1518.0
-76.0,79.0,-41.0,-42.0,4000.0,-810.0,105.0,-1461.0
-100.0,-86.0,-59.0,-10.0,4000.0,-780.0,1.0,-1384.0
-92.0,-46.0,-30.0,-18.0,4000.0,-767.0,348.0,-1245.0
-64.0,-142.0,-64.0,-26.0,4000.0,-731.0,339.0,-1078.0
-17.0,-216.0,-29.0,-25.0,3410.0,-721.0,-169.0,-924.0
-19.0,-347.0,-5.0,-17.0,2711.0,-630.0,-333.0,-796.0
-10.0,-310.0,-7.0,19.0,2165.0,-516.0,-252.0,-683.0
10.0,-146.0,30.0,34.0,1983.0,-485.0,10.0,-563.0
3.0,28.0,14.0,75.0,1601.0,-516.0,31.0,-511.0
15.0,121.0,11.0,85.0,642.0,-521.0,-219.0,-407.0
7.0,278.0,-6.0,91.0,-1250.0,-419.0,-542.0,-305.0
-1.0,594.0,-12.0,109.0,-2115.0,-401.0,-882.0,-227.0
8.0,681.0,-22.0,-14.0,-2094.0,-388.0,-911.0,-164.0
-16.0,404.0,-54.0,-92.0,-2466.0,-338.0,-678.0,-111.0
-23.0,111.0,-31.0,69.0,-3237.0,-307.0,-355.0,-58.0
-35.0,-132.0,-50.0,268.0,-4000.0,-306.0,-69.0,-27.0
-29.0,-307.0,-54.0,-84.0,-4000.0,-280.0,107.0,-37.0
-20.0,-422.0,3.0,-565.0,-4000.0,-232.0,-41.0,-156.0
-58.0,-570.0,-5.0,-515.0,-4000.0,-204.0,-78.0,-278.0
-23.0,-404.0,0.0,-498.0,-4000.0,-159.0,189.0,-295.0
-2.0,-414.0,13.0,-238.0,-4000.0,-135.0,346.0,-292.0
-12.0,-371.0,-12.0,81.0,-4000.0,-78.0,498.0,-348.0
7.0,-172.0,-16.0,362.0,-4000.0,12.0,584.0,-350.0
-17.0,12.0,-25.0,457.0,-4000.0,74.0,850.0,-325.0
3.0,212.0,-20.0,229.0,-4000.0,102.0,1059.0,-313.0
39.0,239.0,-7.0,199.0,-4000.0,147.0,772.0,-257.0
30.0,273.0,-15.0,-8.0,-4000.0,196.0,613.0,-196.0
15.0,213.0,1.0,-123.0,-4000.0,188.0,623.0,-150.0
15.0,197.0,16.0,-211.0,-4000.0,185.0,616.0,-88.0
4.0,140.0,43.0,-184.0,-4000.0,207.0,492.0,-93.0
0.0,110.0,35.0,-129.0,-4000.0,189.0,404.0,-154.0
12.0,111.0,21.0,-237.0,-4000.0,208.0,349.0,-188.0
10.0,95.0,21.0,-113.0,-4000.0,216.0,126.0,-232.0
-18.0,37.0,17.0,-45.0,-4000.0,225.0,-16.0,-262.0
-23.0,-4.0,16.0,36.0,-4000.0,209.0,-135.0,-301.0
-9.0,38.0,-11.0,84.0,-4000.0,216.0,-190.0,-280.0
-10.0,66.0,7.0,52.0,-2986.0,223.0,-190.0,-259.0
-16.0,84.0,5.0,96.0,-501.0,237.0,-167.0,-349.0
-8.0,85.0,-1.0,129.0,1227.0,286.0,-132.0,-359.0
10.0,102.0,-17.0,66.0,2320.0,256.0,-241.0,-366.0
-14.0,-29.0,-29.0,22.0,1918.0,268.0,-442.0,-370.0
-39.0,-118.0,11.0,19.0,1114.0,268.0,-595.0,-353.0
-13.0,-109.0,6.0,32.0,216.0,283.0,-522.0,-366.0
-25.0,-68.0,11.0,65.0,-456.0,321.0,-359.0,-370.0
-18.0,-158.0,-3.0,0.0,-1377.0,376.0,-288.0,-345.0
-13.0,-314.0,1.0,-44.0,-3066.0,439.0,-373.0,-353.0
-19.0,-16.0,14.0,-7.0,-4000.0,498.0,-565.0,-366.0
11.0,278.0,4.0,-1.0,-4000.0,586.0,-657.0,-338.0
3.0,344.0,14.0,4.0,-4000.0,693.0,-686.0,-362.0
23.0,469.0,9.0,32.0,-4000.0,876.0,-651.0,-370.0
13.0,355.0,7.0,64.0,-4000.0,980.0,-542.0,-362.0
-6.0,227.0,18.0,63.0,-4000.0,1140.0,-511.0,-362.0
0.0,116.0,14.0,48.0,-4000.0,1279.0,-439.0,-334.0
15.0,30.0,6.0,99.0,-4000.0,1409.0,-255.0,-333.0
12.0,41.0,1.0,44.0,-4000.0,1639.0,-151.0,-280.0
-10.0,-32.0,-13.0,-18.0,-4000.0,1787.0,-163.0,-226.0
-10.0,-127.0,0.0,-7.0,-4000.0,1963.0,-122.0,-175.0
3.0,-244.0,-4.0,-5.0,-4000.0,2125.0,-45.0,-149.0
2.0,-137.0,10.0,5.0,-4000.0,2243.0,-135.0,-140.0
-28.0,-75.0,45.0,-44.0,-4000.0,1982.0,-253.0,-51.0
-14.0,-162.0,30.0,-59.0,-4000.0,1248.0,-314.0,77.0
-19.0,-98.0,18.0,-72.0,-4000.0,1183.0,-287.0,224.0
-10.0,-120.0,14.0,-95.0,-4000.0,1626.0,-92.0,274.0
-25.0,-304.0,35.0,-90.0,-4000.0,557.0,-91.0,274.0
-27.0,-275.0,55.0,-44.0,-3315.0,-672.0,-90.0,349.0
35.0,-122.0,64.0,-14.0,-2094.0,-1005.0,13.0,367.0
58.0,-28.0,28.0,-57.0,-193.0,-1782.0,-60.0,355.0
70.0,85.0,11.0,-171.0,1443.0,-2608.0,-158.0,349.0
36.0,14.0,-15.0,-239.0,2630.0,-3518.0,-220.0,359.0
4.0,-1.0,-53.0,-148.0,3837.0,-3657.0,-214.0,341.0
21.0,106.0,-22.0,-32.0,4000.0,-3063.0,-66.0,294.0
56.0,148.0,-14.0,67.0,4000.0,-2315.0,101.0,304.0
18.0,155.0,-22.0,75.0,4000.0,-1764.0,162.0,331.0
-20.0,205.0,-20.0,39.0,4000.0,-1780.0,272.0,339.0
-16.0,176.0,39.0,69.0,4000.0,-1688.0,339.0,328.0
-5.0,14.0,107.0,178.0,4000.0,-1821.0,341.0,357.0
-20.0,-70.0,107.0,243.0,4000.0,-1831.0,365.0,349.0
-46.0,7.0,64.0,90.0,4000.0,-1701.0,413.0,349.0
-17.0,65.0,83.0,45.0,4000.0,-1440.0,548.0,344.0
-12.0,49.0,38.0,51.0,4000.0,-1526.0,542.0,286.0
-4.0,106.0,2.0,-13.0,4000.0,-1747.0,481.0,207.0
-19.0,309.0,-1.0,-63.0,4000.0,-1486.0,563.0,91.0
-17.0,521.0,-37.0,-103.0,4000.0,-1330.0,673.0,38.0
-23.0,288.0,-15.0,-245.0,4000.0,-973.0,673.0,132.0
-27.0,200.0,-9.0,-532.0,4000.0,-267.0,514.0,222.0
0.0,311.0,-3.0,-546.0,4000.0,492.0,365.0,128.0
10.0,46.0,-32.0,-249.0,4000.0,1083.0,346.0,106.0
27.0,-267.0,-17.0,28.0,4000.0,1482.0,469.0,112.0
-9.0,-440.0,-13.0,206.0,4000.0,1929.0,587.0,15.0
-20.0,-521.0,-57.0,329.0,4000.0,2385.0,595.0,14.0
-10.0,-440.0,-33.0,317.0,4000.0,2645.0,464.0,-8.0
10.0,-261.0,-5.0,182.0,4000.0,3148.0,141.0,-53.0
33.0,-208.0,-12.0,115.0,4000.0,4000.0,-56.0,-109.0
24.0,-157.0,-17.0,154.0,4000.0,4000.0,-82.0,-159.0
31.0,-69.0,6.0,238.0,4000.0,4000.0,-97.0,-156.0
11.0,-23.0,-15.0,131.0,3877.0,4000.0,-391.0,-149.0
10.0,26.0,-23.0,107.0,3464.0,4000.0,-555.0,-98.0
-3.0,32.0,-10.0,113.0,3140.0,4000.0,92.0,-15.0
2.0,-1.0,-2.0,-4.0,2646.0,3785.0,759.0,104.0
9.0,15.0,-63.0,-19.0,2100.0,3345.0,661.0,39.0
-27.0,56.0,-94.0,-75.0,1352.0,3474.0,478.0,-142.0
-42.0,40.0,-54.0,-71.0,692.0,4000.0,598.0,-183.0
-16.0,58.0,-52.0,-94.0,76.0,4000.0,376.0,-248.0
-41.0,87.0,-66.0,-88.0,-551.0,4000.0,63.0,-258.0
-30.0,258.0,-95.0,-89.0,-1272.0,4000.0,-287.0,-254.0
10.0,290.0,-145.0,-95.0,-2081.0,3792.0,-379.0,-268.0
-6.0,31.0,-102.0,-69.0,-2842.0,2877.0,-197.0,-301.0
-6.0,-69.0,-72.0,-63.0,-3325.0,1799.0,-167.0,-411.0
-24.0,-161.0,-129.0,-83.0,-3973.0,902.0,-185.0,-443.0
-18.0,-199.0,-122.0,-125.0,-4000.0,455.0,-313.0,-455.0
-23.0,-132.0,-139.0,-80.0,-4000.0,87.0,-325.0,-459.0
-33.0,-114.0,-66.0,-96.0,-4000.0,-293.0,-197.0,-482.0
-10.0,-145.0,27.0,-85.0,-3835.0,-680.0,-69.0,-489.0
-11.0,-177.0,57.0,-86.0,-3689.0,-1053.0,-154.0,-443.0
-21.0,-188.0,125.0,-105.0,-3315.0,-1182.0,-227.0,-276.0
-42.0,-158.0,177.0,-81.0,-2561.0,-1265.0,-233.0,-140.0
-32.0,-137.0,205.0,-74.0,-1797.0,-1511.0,-241.0,-71.0
-33.0,-85.0,219.0,-80.0,-1033.0,-1847.0,-233.0,-40.0
-52.0,17.0,203.0,-109.0,-903.0,-1915.0,-202.0,-101.0
-40.0,56.0,137.0,-107.0,-877.0,-1850.0,-32.0,-73.0
-59.0,91.0,73.0,-61.0,-338.0,-1896.0,-6.0,8.0
-69.0,116.0,95.0,-30.0,1163.0,-1799.0,-48.0,108.0
-35.0,205.0,57.0,-63.0,3102.0,-1847.0,-87.0,144.0
-35.0,359.0,-37.0,-39.0,4000.0,-1942.0,-137.0,130.0
-61.0,476.0,-38.0,-13.0,4000.0,-1975.0,-188.0,119.0
-53.0,359.0,-90.0,-1.0,4000.0,-2054.0,-167.0,155.0
-53.0,138.0,-140.0,10.0,2443.0,-2156.0,-133.0,255.0
-42.0,68.0,-105.0,9.0,432.0,-2274.0,-143.0,308.0
-2.0,-20.0,-113.0,53.0,-1601.0,-2353.0,-91.0,348.0
27.0,-86.0,-99.0,56.0,-3688.0,-2493.0,-51.0,326.0
35.0,-70.0,-97.0,28.0,-4000.0,-2660.0,-53.0,358.0
15.0,-131.0,-76.0,38.0,-4000.0,-2803.0,-172.0,369.0
10.0,-231.0,-43.0,54.0,-4000.0,-2839.0,-247.0,355.0
38.0,-228.0,-56.0,35.0,-4000.0,-2839.0,-294.0,225.0
44.0,-154.0,-84.0,7.0,-4000.0,-2932.0,-269.0,104.0
44.0,-66.0,-119.0,-8.0,-4000.0,-2839.0,-142.0,135.0
3.0,-28.0,-101.0,7.0,-4000.0,-2657.0,-58.0,151.0
-7.0,-48.0,-55.0,-12.0,-4000.0,-2484.0,-35.0,259.0
-11.0,-28.0,-45.0,-6.0,-4000.0,-2313.0,-72.0,361.0
-44.0,-28.0,-38.0,-46.0,-4000.0,-2154.0,-112.0,361.0
-37.0,-37.0,-7.0,-113.0,-4000.0,-1975.0,-162.0,456.0
-52.0,-41.0,12.0,-109.0,-4000.0,-1821.0,-182.0,580.0
-62.0,-23.0,55.0,-85.0,-4000.0,-1715.0,-135.0,491.0
-36.0,5.0,96.0,-49.0,-4000.0,-1532.0,-46.0,460.0
-41.0,33.0,95.0,-87.0,-4000.0,-1381.0,-14.0,634.0
-34.0,33.0,77.0,-52.0,-4000.0,-1135.0,-61.0,947.0
4.0,30.0,66.0,7.0,-4000.0,-816.0,-143.0,896.0
30.0,77.0,31.0,0.0,-3148.0,-555.0,-42.0,731.0
65.0,71.0,-8.0,40.0,-3172.0,-293.0,189.0,870.0
35.0,94.0,-72.0,64.0,-3539.0,-94.0,326.0,851.0
6.0,85.0,-112.0,56.0,-3923.0,67.0,380.0,745.0
-20.0,41.0,-36.0,31.0,-4000.0,148.0,394.0,580.0
-20.0,57.0,53.0,56.0,-3767.0,237.0,421.0,438.0
-21.0,50.0,45.0,45.0,-1768.0,599.0,286.0,389.0
-39.0,27.0,79.0,-1.0,1669.0,815.0,200.0,467.0
-27.0,42.0,184.0,13.0,4000.0,758.0,-9.0,450.0
3.0,73.0,112.0,37.0,4000.0,778.0,-390.0,218.0
37.0,111.0,113.0,68.0,4000.0,1063.0,-260.0,190.0
64.0,108.0,136.0,42.0,4000.0,1227.0,-32.0,203.0
61.0,101.0,104.0,6.0,4000.0,1163.0,-106.0,187.0
17.0,80.0,122.0,13.0,4000.0,1128.0,27.0,-75.0
-7.0,33.0,40.0,-1.0,4000.0,1018.0,380.0,-460.0
-43.0,38.0,24.0,20.0,4000.0,1214.0,445.0,-398.0
-69.0,45.0,8.0,52.0,4000.0,1273.0,693.0,-327.0
-77.0,23.0,-9.0,44.0,4000.0,1179.0,995.0,-594.0
-78.0,-17.0,-42.0,16.0,4000.0,1336.0,1223.0,-541.0
-56.0,-26.0,-100.0,13.0,4000.0,1547.0,1902.0,-227.0
-36.0,-32.0,-140.0,16.0,4000.0,1644.0,2492.0,-101.0
4.0,-33.0,-257.0,-12.0,4000.0,1539.0,2879.0,10.0
64.0,-28.0,-242.0,-7.0,4000.0,1417.0,2826.0,-12.0
108.0,-30.0,-222.0,-5.0,4000.0,1214.0,2444.0,-24.0
147.0,4.0,-219.0,-37.0,4000.0,1012.0,1921.0,-50.0
147.0,12.0,-131.0,-32.0,4000.0,902.0,1189.0,-102.0
85.0,-36.0,-22.0,-24.0,4000.0,738.0,628.0,-47.0
60.0,-39.0,130.0,5.0,4000.0,325.0,278.0,-35.0
13.0,-18.0,197.0,69.0,4000.0,281.0,-81.0,-20.0
-23.0,-20.0,158.0,27.0,4000.0,571.0,-733.0,-38.0
-6.0,-32.0,108.0,-28.0,2428.0,485.0,-1487.0,-46.0
-31.0,-42.0,60.0,-75.0,-1833.0,347.0,-1848.0,-2.0
-29.0,-50.0,54.0,-101.0,-4000.0,413.0,-1716.0,21.0
-6.0,-55.0,103.0,-69.0,-4000.0,586.0,-1185.0,-18.0
79.0,-93.0,75.0,-55.0,-4000.0,586.0,-511.0,-46.0
104.0,-102.0,19.0,-84.0,-4000.0,456.0,-257.0,-52.0
1.0,-52.0,24.0,-92.0,-4000.0,299.0,-729.0,-92.0
-48.0,-59.0,47.0,-95.0,-4000.0,208.0,-1527.0,-148.0
-80.0,-63.0,62.0,-84.0,-4000.0,15.0,-2146.0,-240.0
-125.0,-40.0,5.0,-112.0,-4000.0,-221.0,-2224.0,-317.0
-143.0,-41.0,12.0,-113.0,-4000.0,-188.0,-1796.0,-492.0
-125.0,-78.0,15.0,-62.0,-4000.0,-32.0,-630.0,-594.0
-128.0,-59.0,-17.0,-85.0,-4000.0,571.0,271.0,-389.0
-114.0,-37.0,-2.0,-45.0,-614.0,1098.0,166.0,-627.0
-102.0,-42.0,-52.0,-18.0,4000.0,1387.0,-575.0,-801.0
-67.0,18.0,-124.0,-16.0,4000.0,1269.0,-1271.0,-467.0
-79.0,59.0,-149.0,-9.0,4000.0,738.0,-1368.0,-317.0
-87.0,30.0,-167.0,4.0,4000.0,336.0,-1238.0,-137.0
-66.0,23.0,-173.0,3.0,4000.0,-109.0,-666.0,56.0
-112.0,31.0,-146.0,30.0,4000.0,-442.0,-802.0,341.0
-72.0,55.0,-105.0,42.0,4000.0,-600.0,-817.0,654.0
-132.0,68.0,-25.0,25.0,4000.0,-638.0,-456.0,479.0
-85.0,48.0,103.0,61.0,4000.0,-750.0,-941.0,264.0
-20.0,102.0,152.0,55.0,4000.0,-989.0,-859.0,209.0
-11.0,82.0,184.0,51.0,4000.0,-1172.0,-743.0,59.0
142.0,84.0,168.0,20.0,4000.0,-1461.0,-450.0,71.0
325.0,91.0,52.0,1.0,4000.0,-1664.0,-442.0,38.0
399.0,44.0,46.0,7.0,4000.0,-1747.0,-394.0,5.0
177.0,47.0,3.0,5.0,4000.0,-1792.0,-172.0,-19.0
80.0,-6.0,-42.0,-18.0,4000.0,-1821.0,-446.0,-47.0
-12.0,-11.0,-33.0,-37.0,4000.0,-1850.0,-445.0,6.0
48.0,-29.0,-77.0,-43.0,4000.0,-1780.0,-224.0,-25.0
342.0,13.0,-101.0,-35.0,4000.0,-1753.0,164.0,-64.0
235.0,67.0,-104.0,-13.0,4000.0,-1651.0,172.0,-105.0
53.0,24.0,-20.0,-40.0,4000.0,-1396.0,315.0,-116.0
-47.0,-4.0,-26.0,-65.0,4000.0,-1290.0,1119.0,-214.0
-209.0,-69.0,-53.0,-41.0,4000.0,-945.0,2514.0,-282.0
-262.0,-131.0,-6.0,54.0,4000.0,-279.0,3233.0,-291.0
-260.0,-144.0,39.0,206.0,4000.0,69.0,2696.0,-232.0
-208.0,-129.0,45.0,96.0,4000.0,172.0,1776.0,-40.0
-148.0,-104.0,-7.0,-202.0,4000.0,262.0,1098.0,49.0
-147.0,-94.0,23.0,-212.0,4000.0,278.0,1007.0,117.0
-135.0,-42.0,51.0,-160.0,4000.0,267.0,1149.0,206.0
-208.0,24.0,105.0,-72.0,4000.0,243.0,1280.0,193.0
-138.0,45.0,138.0,2.0,4000.0,396.0,759.0,105.0
163.0,50.0,31.0,-70.0,4000.0,391.0,91.0,64.0
241.0,77.0,-38.0,-30.0,4000.0,8.0,-89.0,20.0
106.0,87.0,-99.0,42.0,4000.0,-472.0,-17.0,-24.0
-21.0,91.0,-219.0,65.0,4000.0,-988.0,155.0,1.0
-128.0,93.0,-274.0,104.0,4000.0,-1308.0,349.0,81.0
-186.0,83.0,-236.0,39.0,2035.0,-1261.0,256.0,160.0
-215.0,70.0,-182.0,-40.0,-350.0,-1526.0,-113.0,178.0
-142.0,31.0,-94.0,-3.0,-2472.0,-1727.0,-507.0,193.0
-42.0,-29.0,18.0,-27.0,-4000.0,-1205.0,-573.0,230.0
-9.0,-10.0,126.0,-9.0,-4000.0,-710.0,-310.0,286.0
50.0,34.0,160.0,-1.0,-4000.0,-532.0,-485.0,344.0
30.0,23.0,56.0,-65.0,-4000.0,-678.0,-729.0,367.0
-19.0,34.0,-40.0,-96.0,-4000.0,-521.0,-741.0,396.0
-40.0,-3.0,-37.0,-91.0,-4000.0,83.0,-594.0,434.0
33.0,-27.0,-80.0,-83.0,-4000.0,400.0,-287.0,434.0
69.0,-28.0,-93.0,-66.0,-4000.0,411.0,-161.0,409.0
39.0,-29.0,-99.0,-33.0,-4000.0,376.0,-411.0,397.0
51.0,-43.0,-22.0,-9.0,-4000.0,165.0,-642.0,367.0
17.0,-70.0,98.0,42.0,-4000.0,-253.0,-704.0,264.0
-22.0,-39.0,121.0,55.0,-4000.0,-489.0,-680.0,176.0
-33.0,-4.0,193.0,42.0,-4000.0,-293.0,-743.0,92.0
38.0,49.0,108.0,-26.0,-4000.0,62.0,-941.0,59.0
66.0,44.0,43.0,-151.0,-4000.0,199.0,-723.0,90.0
-5.0,-5.0,113.0,-182.0,-4000.0,195.0,-371.0,-36.0
-49.0,-23.0,85.0,-171.0,-4000.0,106.0,-104.0,-212.0
-61.0,-19.0,100.0,-127.0,-4000.0,-154.0,25.0,-333.0
-8.0,31.0,75.0,-76.0,-4000.0,-600.0,-149.0,-401.0
31.0,22.0,24.0,-36.0,-4000.0,-333.0,-394.0,-330.0
-16.0,36.0,30.0,22.0,-4000.0,149.0,-620.0,-281.0
43.0,41.0,53.0,132.0,-4000.0,351.0,-489.0,-276.0
97.0,-4.0,74.0,198.0,-4000.0,673.0,-71.0,-370.0
82.0,19.0,69.0,174.0,-4000.0,319.0,346.0,-553.0
82.0,-12.0,33.0,134.0,-4000.0,-423.0,341.0,-740.0
-1.0,-52.0,-1.0,80.0,-4000.0,-966.0,416.0,-940.0
-27.0,-42.0,2.0,37.0,-3444.0,-1231.0,637.0,-870.0
74.0,-34.0,-28.0,-64.0,751.0,-1038.0,622.0,-758.0
184.0,-55.0,-135.0,-216.0,4000.0,-535.0,871.0,-679.0
204.0,-63.0,-200.0,-228.0,4000.0,-28.0,824.0,-529.0
76.0,-55.0,-106.0,-52.0,2241.0,486.0,945.0,-581.0
-238.0,-57.0,-36.0,49.0,308.0,882.0,1143.0,-581.0
-131.0,1.0,-40.0,85.0,1409.0,1128.0,813.0,-398.0
187.0,19.0,-18.0,167.0,4000.0,1214.0,684.0,-189.0
277.0,39.0,-85.0,102.0,4000.0,1344.0,415.0,-139.0
256.0,70.0,-55.0,50.0,4000.0,1669.0,-25.0,-254.0
33.0,91.0,203.0,54.0,4000.0,1904.0,107.0,-124.0
-69.0,87.0,234.0,-19.0,4000.0,2124.0,-258.0,24.0
-152.0,20.0,60.0,-11.0,4000.0,2289.0,-1246.0,-1.0
-100.0,35.0,-86.0,6.0,4000.0,2421.0,-1884.0,212.0
112.0,66.0,-473.0,-149.0,4000.0,2550.0,-1832.0,487.0
142.0,117.0,-674.0,-237.0,4000.0,2566.0,-826.0,536.0
176.0,121.0,-645.0,-218.0,1401.0,2550.0,738.0,612.0
95.0,30.0,-557.0,-220.0,-2470.0,2577.0,1454.0,497.0
70.0,14.0,-194.0,-159.0,-4000.0,2450.0,673.0,334.0
367.0,-10.0,-1.0,-94.0,-4000.0,2254.0,394.0,357.0
340.0,-86.0,246.0,-33.0,-4000.0,2356.0,478.0,331.0
-213.0,-133.0,263.0,39.0,-4000.0,2099.0,355.0,417.0
-217.0,-111.0,67.0,37.0,-4000.0,1734.0,457.0,304.0
243.0,-56.0,79.0,37.0,-4000.0,1518.0,658.0,195.0
28.0,-14.0,114.0,63.0,-4000.0,1214.0,1143.0,153.0
-473.0,25.0,181.0,72.0,-4000.0,961.0,1540.0,17.0
-618.0,58.0,218.0,88.0,-4000.0,641.0,1841.0,-102.0
-649.0,37.0,252.0,87.0,-4000.0,532.0,1223.0,-297.0
-620.0,41.0,217.0,97.0,-4000.0,324.0,76.0,-425.0
-457.0,160.0,179.0,88.0,-4000.0,132.0,481.0,-553.0
-242.0,225.0,244.0,99.0,-1534.0,-63.0,1288.0,-687.0
-142.0,205.0,364.0,105.0,3541.0,-272.0,96.0,-687.0
-75.0,46.0,259.0,91.0,4000.0,-323.0,-1187.0,-587.0
-52.0,-236.0,95.0,80.0,3037.0,-352.0,-1673.0,-427.0
-228.0,-275.0,49.0,20.0,538.0,-350.0,-912.0,-137.0
-375.0,-135.0,272.0,39.0,-2108.0,-333.0,857.0,249.0
-474.0,-138.0,565.0,48.0,-3642.0,-216.0,1345.0,775.0
-239.0,-157.0,323.0,24.0,-4000.0,-146.0,-238.0,1142.0
353.0,-97.0,402.0,25.0,-4000.0,-51.0,-1793.0,1319.0
822.0,-16.0,492.0,59.0,-4000.0,30.0,-1488.0,1346.0
1036.0,18.0,335.0,50.0,-4000.0,-20.0,-1136.0,1437.0
824.0,36.0,378.0,11.0,-4000.0,-66.0,-402.0,1650.0
175.0,75.0,153.0,10.0,-4000.0,-80.0,-385.0,1595.0
-850.0,122.0,-40.0,18.0,-4000.0,-213.0,-500.0,1373.0
-1105.0,160.0,-376.0,13.0,-4000.0,-507.0,481.0,1065.0
-476.0,160.0,-817.0,-30.0,-4000.0,-651.0,235.0,881.0
-213.0,159.0,-490.0,-82.0,-4000.0,-576.0,-1551.0,556.0
50.0,91.0,204.0,-265.0,-4000.0,-371.0,-1748.0,426.0
134.0,120.0,288.0,-301.0,-4000.0,-249.0,-946.0,418.0
95.0,286.0,-206.0,-200.0,-4000.0,-337.0,-977.0,342.0
157.0,373.0,-1403.0,-157.0,-4000.0,-446.0,-592.0,346.0
302.0,266.0,-3083.0,-113.0,-4000.0,-620.0,-946.0,222.0
647.0,99.0,-3095.0,11.0,-4000.0,-727.0,-839.0,146.0
705.0,8.0,-2110.0,190.0,-4000.0,-786.0,-745.0,-44.0
428.0,-129.0,-716.0,305.0,-4000.0,-852.0,-790.0,-148.0
52.0,-375.0,244.0,232.0,-4000.0,-802.0,-603.0,-191.0
-215.0,-430.0,476.0,161.0,-3521.0,-794.0,-630.0,-137.0
-205.0,-194.0,899.0,130.0,-3014.0,-790.0,-221.0,-147.0
56.0,-20.0,872.0,-107.0,-3315.0,-753.0,195.0,-197.0
169.0,0.0,923.0,-170.0,-2535.0,-703.0,669.0,-305.0
328.0,-42.0,793.0,-123.0,-1606.0,-630.0,801.0,-572.0
325.0,-110.0,1794.0,-2.0,-1117.0,-575.0,939.0,-671.0
40.0,-234.0,2924.0,132.0,308.0,-535.0,1092.0,-791.0
-74.0,-330.0,1900.0,229.0,2513.0,-485.0,1202.0,-750.0
-75.0,-195.0,463.0,258.0,4000.0,-433.0,527.0,-671.0
33.0,2.0,-342.0,207.0,4000.0,-354.0,-680.0,-650.0
-86.0,69.0,-898.0,140.0,4000.0,-331.0,-1648.0,-608.0
-112.0,136.0,-1166.0,-93.0,4000.0,-345.0,-1652.0,-500.0
26.0,150.0,-1153.0,-301.0,4000.0,-262.0,-678.0,-562.0
216.0,114.0,-976.0,-442.0,4000.0,-237.0,-946.0,-824.0
553.0,-4.0,-941.0,-428.0,4000.0,-262.0,-1533.0,-1083.0
1169.0,-141.0,-645.0,-78.0,4000.0,-182.0,-121.0,-1213.0
1319.0,-100.0,-114.0,172.0,4000.0,8.0,2377.0,-512.0
296.0,1.0,19.0,80.0,4000.0,223.0,1463.0,122.0
-241.0,34.0,69.0,52.0,4000.0,282.0,-1587.0,296.0
-924.0,-53.0,31.0,26.0,4000.0,208.0,-717.0,473.0
-1481.0,-118.0,53.0,12.0,4000.0,-41.0,346.0,213.0
-1353.0,-43.0,443.0,185.0,4000.0,-390.0,-1600.0,-39.0
-1231.0,66.0,1257.0,292.0,4000.0,-580.0,-3444.0,-46.0
-828.0,118.0,1163.0,171.0,4000.0,-621.0,-2905.0,292.0
-664.0,225.0,-774.0,-3.0,4000.0,-555.0,1605.0,556.0
-589.0,276.0,-1947.0,-22.0,3399.0,-636.0,4000.0,387.0
-836.0,280.0,-1974.0,-95.0,1995.0,-901.0,3347.0,438.0
-189.0,262.0,-1498.0,-375.0,-1385.0,-1107.0,2444.0,540.0
908.0,162.0,-408.0,-523.0,-4000.0,-985.0,2826.0,680.0
725.0,217.0,976.0,-266.0,-4000.0,-550.0,1575.0,608.0
-2.0,178.0,1348.0,-13.0,-4000.0,-114.0,1158.0,214.0
-284.0,45.0,205.0,190.0,-3856.0,191.0,310.0,-40.0
-53.0,-36.0,-478.0,345.0,-1059.0,292.0,637.0,-301.0
340.0,24.0,-841.0,227.0,1388.0,57.0,1899.0,-366.0
130.0,68.0,-841.0,3.0,-59.0,-224.0,897.0,-385.0
-39.0,-26.0,-304.0,-141.0,-50.0,-358.0,954.0,-775.0
373.0,-125.0,1367.0,-97.0,920.0,-678.0,1052.0,-953.0
1356.0,-121.0,2795.0,-172.0,837.0,-875.0,1202.0,-883.0
1840.0,-181.0,2352.0,-401.0,199.0,-1030.0,2749.0,-545.0
608.0,-334.0,1174.0,-218.0,-2247.0,-1122.0,3530.0,-297.0
19.0,-267.0,-42.0,-132.0,-1963.0,-1118.0,1902.0,-602.0
-258.0,-149.0,866.0,-214.0,-798.0,-1227.0,-214.0,-804.0
-225.0,-18.0,2924.0,-210.0,-773.0,-1106.0,-2055.0,-990.0
-125.0,-39.0,3238.0,-243.0,-2419.0,-773.0,-3520.0,-1012.0
-453.0,-77.0,1739.0,-141.0,-2550.0,-310.0,-4000.0,-818.0
-102.0,-159.0,-1127.0,-66.0,1091.0,237.0,-4000.0,-572.0
247.0,-307.0,-3095.0,56.0,3167.0,449.0,-3538.0,-226.0
192.0,-137.0,-2541.0,-75.0,2189.0,345.0,-3191.0,103.0
-433.0,51.0,-971.0,-148.0,-325.0,282.0,-2740.0,404.0
-649.0,60.0,1184.0,-65.0,3127.0,368.0,-1271.0,677.0
-895.0,44.0,480.0,-255.0,4000.0,603.0,980.0,1182.0
-1105.0,105.0,-1063.0,-348.0,2754.0,791.0,3854.0,1704.0
-784.0,113.0,-318.0,-503.0,-2.0,815.0,1919.0,1846.0
-620.0,174.0,-178.0,-625.0,4.0,1142.0,613.0,1716.0
-457.0,321.0,-1678.0,-328.0,393.0,1854.0,4000.0,1663.0
-288.0,355.0,-3211.0,156.0,302.0,1991.0,4000.0,1568.0
-493.0,341.0,-3278.0,467.0,-1750.0,1639.0,2058.0,881.0
-493.0,436.0,-3111.0,613.0,-2206.0,1183.0,1052.0,181.0
131.0,549.0,-1137.0,515.0,4.0,941.0,4000.0,30.0
357.0,443.0,2289.0,392.0,-1333.0,953.0,4000.0,-223.0
444.0,125.0,3072.0,439.0,-4000.0,622.0,-2186.0,-189.0
511.0,-212.0,1361.0,515.0,-4000.0,143.0,-4000.0,49.0
281.0,-405.0,276.0,410.0,-4000.0,-143.0,-2506.0,124.0
-136.0,-590.0,-1024.0,152.0,-4000.0,-189.0,1984.0,304.0
-321.0,-635.0,-1695.0,-35.0,-4000.0,-261.0,1581.0,247.0
96.0,-383.0,-2318.0,16.0,-2989.0,-333.0,-792.0,393.0
900.0,-182.0,-1667.0,246.0,-2287.0,-373.0,145.0,580.0
1372.0,-137.0,73.0,156.0,-328.0,-331.0,1528.0,425.0
849.0,-64.0,988.0,55.0,2882.0,-332.0,2826.0,145.0
493.0,121.0,1704.0,190.0,4000.0,-371.0,2387.0,-333.0
888.0,355.0,1171.0,341.0,2955.0,-169.0,-458.0,-455.0
965.0,316.0,728.0,325.0,2189.0,194.0,-2211.0,-465.0
-205.0,208.0,259.0,81.0,4000.0,394.0,-4000.0,-323.0
-449.0,258.0,199.0,-220.0,4000.0,274.0,-4000.0,203.0
1095.0,240.0,931.0,-552.0,2513.0,309.0,-4000.0,426.0
2597.0,223.0,1812.0,-594.0,2386.0,390.0,-4000.0,634.0
1347.0,106.0,1691.0,-625.0,4000.0,506.0,2061.0,846.0
-1206.0,-45.0,520.0,-659.0,4000.0,725.0,4000.0,882.0
-2108.0,-154.0,-238.0,-507.0,4000.0,542.0,4000.0,1020.0
-2126.0,-368.0,878.0,-291.0,4000.0,441.0,1602.0,1071.0
27.0,-560.0,2259.0,-265.0,4000.0,815.0,-1796.0,939.0
1376.0,-491.0,2454.0,-416.0,4000.0,1214.0,-3506.0,751.0
1020.0,-410.0,3741.0,-520.0,-1626.0,1279.0,-4000.0,462.0
-19.0,-375.0,2455.0,-427.0,-3586.0,1157.0,-1887.0,-46.0
-1459.0,-206.0,-107.0,12.0,-4000.0,1279.0,1115.0,-540.0
-1634.0,-16.0,-442.0,223.0,-4000.0,1287.0,1280.0,-803.0
-1947.0,81.0,-1635.0,61.0,-4000.0,896.0,510.0,-730.0
-2124.0,83.0,-523.0,61.0,-4000.0,805.0,1463.0,-555.0
-1707.0,256.0,1348.0,107.0,1853.0,1059.0,2101.0,-320.0
-974.0,411.0,1908.0,193.0,2354.0,766.0,3726.0,54.0
-132.0,346.0,852.0,360.0,505.0,812.0,4000.0,-158.0
530.0,374.0,-1911.0,317.0,635.0,1352.0,2552.0,-659.0
954.0,582.0,-2175.0,167.0,1018.0,1639.0,1004.0,-1018.0
920.0,615.0,-2757.0,102.0,1344.0,1460.0,-3432.0,-1208.0
1110.0,392.0,-2606.0,144.0,-1129.0,766.0,-4000.0,-1200.0
1189.0,-47.0,-1694.0,225.0,-3148.0,248.0,-1749.0,-1200.0
1169.0,-562.0,-1682.0,264.0,-3753.0,-13.0,3216.0,-889.0
778.0,-791.0,-1297.0,297.0,-4000.0,-280.0,2225.0,-620.0
428.0,-751.0,-1492.0,255.0,-4000.0,-519.0,620.0,-389.0
738.0,-440.0,-132.0,189.0,-2935.0,-796.0,1183.0,-146.0
798.0,-50.0,2030.0,178.0,-543.0,-816.0,812.0,119.0
595.0,-225.0,2600.0,105.0,-2953.0,-696.0,214.0,76.0
393.0,-503.0,1936.0,-49.0,-4000.0,-647.0,-2536.0,-332.0
245.0,-195.0,4000.0,-45.0,-4000.0,-32.0,-4000.0,-313.0
154.0,-125.0,4000.0,209.0,-4000.0,563.0,-4000.0,276.0
-55.0,-33.0,-1518.0,556.0,-4000.0,967.0,-4000.0,831.0
-317.0,628.0,-4000.0,356.0,-2537.0,1533.0,-3855.0,890.0
-378.0,989.0,-4000.0,-104.0,-388.0,1473.0,1010.0,1063.0
-493.0,823.0,-4000.0,-365.0,-4000.0,586.0,4000.0,1207.0
-567.0,772.0,-2871.0,-625.0,-4000.0,-578.0,4000.0,941.0
-484.0,569.0,-1410.0,-594.0,-4000.0,-1005.0,4000.0,816.0
-311.0,298.0,-149.0,-652.0,-4000.0,-576.0,4000.0,497.0
-203.0,131.0,390.0,-686.0,-4000.0,-306.0,2321.0,27.0
-185.0,-295.0,1379.0,-438.0,-4000.0,-816.0,-349.0,-537.0
32.0,-287.0,2018.0,-241.0,-4000.0,-1699.0,-642.0,-1037.0
67.0,-483.0,1479.0,-22.0,-4000.0,-2105.0,-882.0,-1298.0
235.0,-836.0,621.0,138.0,-3586.0,-2026.0,-1702.0,-1469.0
351.0,-743.0,1062.0,-25.0,-3172.0,-1647.0,-2687.0,-1213.0
175.0,-402.0,1322.0,-88.0,1343.0,-923.0,-4000.0,-730.0
60.0,-83.0,1249.0,73.0,4000.0,-485.0,-4000.0,-31.0
-120.0,-310.0,775.0,207.0,4000.0,-392.0,-4000.0,716.0
-227.0,-273.0,307.0,345.0,4000.0,-203.0,-3978.0,947.0
-295.0,-261.0,361.0,398.0,3167.0,68.0,-2353.0,601.0
-341.0,-314.0,308.0,451.0,3802.0,80.0,-680.0,517.0
-366.0,-136.0,153.0,394.0,4000.0,-500.0,1158.0,597.0
-351.0,-239.0,-219.0,459.0,4000.0,-1005.0,1656.0,485.0
-285.0,-139.0,-63.0,563.0,4000.0,-1237.0,1670.0,532.0
-238.0,-7.0,-90.0,538.0,4000.0,-1461.0,1512.0,536.0
-223.0,-72.0,-111.0,490.0,3428.0,-1518.0,3411.0,456.0
-179.0,3.0,-25.0,328.0,3150.0,-1270.0,4000.0,356.0
-135.0,346.0,-70.0,172.0,4000.0,-620.0,3596.0,426.0
-136.0,460.0,0.0,-61.0,4000.0,-10.0,2166.0,572.0
-13.0,477.0,113.0,-279.0,4000.0,337.0,2061.0,890.0
66.0,772.0,366.0,-473.0,4000.0,563.0,2086.0,867.0
62.0,595.0,541.0,-438.0,4000.0,571.0,2973.0,751.0
43.0,128.0,669.0,-128.0,4000.0,394.0,2582.0,1012.0
-27.0,-96.0,663.0,-116.0,4000.0,54.0,2036.0,556.0
-110.0,-281.0,495.0,-159.0,4000.0,-253.0,-162.0,-157.0
-155.0,-232.0,234.0,204.0,4000.0,-875.0,-3106.0,-195.0
-135.0,380.0,187.0,72.0,-345.0,-1586.0,-4000.0,1.0
-116.0,1250.0,75.0,-70.0,-4000.0,-1746.0,-4000.0,-449.0
-18.0,1396.0,35.0,-198.0,-4000.0,-1605.0,-2610.0,-638.0
14.0,1293.0,96.0,-1101.0,-4000.0,-1376.0,-1199.0,-549.0
-4.0,1201.0,24.0,-1552.0,-4000.0,-1237.0,91.0,-1055.0
0.0,384.0,-11.0,-1542.0,-4000.0,-794.0,329.0,-2100.0
-21.0,-172.0,-115.0,-711.0,-4000.0,75.0,-750.0,-2218.0
-8.0,-482.0,-143.0,248.0,-4000.0,805.0,934.0,-1391.0
11.0,-1052.0,-250.0,363.0,-3701.0,1148.0,2061.0,-1997.0
10.0,-1350.0,-334.0,272.0,2760.0,1026.0,1959.0,-1644.0
4.0,-1689.0,-289.0,162.0,4000.0,1183.0,-882.0,-454.0
39.0,-1552.0,-212.0,320.0,4000.0,1292.0,-2549.0,-232.0
55.0,-1290.0,-189.0,538.0,4000.0,1018.0,-764.0,654.0
31.0,-1095.0,-177.0,467.0,4000.0,929.0,1996.0,692.0
62.0,-627.0,-190.0,245.0,4000.0,994.0,3983.0,465.0
89.0,-236.0,-217.0,-7.0,4000.0,1006.0,4000.0,1502.0
54.0,460.0,-177.0,-156.0,4000.0,734.0,4000.0,1924.0
49.0,1948.0,-211.0,-123.0,4000.0,742.0,3347.0,2223.0
78.0,2419.0,-182.0,113.0,4000.0,1083.0,2682.0,3000.0
33.0,1323.0,-125.0,337.0,4000.0,1443.0,2375.0,3719.0
16.0,1713.0,-96.0,386.0,4000.0,1525.0,1670.0,3588.0
64.0,1323.0,-72.0,327.0,4000.0,1547.0,1380.0,2314.0
66.0,-590.0,-39.0,-52.0,4000.0,1775.0,897.0,896.0
92.0,-992.0,53.0,-130.0,4000.0,1639.0,571.0,-1265.0
80.0,-1138.0,222.0,207.0,4000.0,1669.0,130.0,-4000.0
83.0,-1155.0,592.0,139.0,4000.0,1901.0,823.0,-4000.0
90.0,-948.0,1029.0,-114.0,4000.0,1982.0,921.0,-4000.0
13.0,746.0,1452.0,-118.0,4000.0,2224.0,77.0,-4000.0
-48.0,2482.0,1794.0,-271.0,4000.0,2425.0,-1599.0,-1534.0
-81.0,2932.0,1544.0,-409.0,2308.0,2485.0,-3668.0,243.0
56.0,2469.0,657.0,-208.0,1970.0,2824.0,-1252.0,666.0
127.0,672.0,179.0,-98.0,3008.0,3461.0,2746.0,1150.0
-32.0,-1257.0,-64.0,-160.0,1920.0,4000.0,3723.0,1272.0
-92.0,-2969.0,-254.0,-328.0,125.0,4000.0,2557.0,1502.0
-74.0,-3644.0,-438.0,-322.0,-653.0,4000.0,1776.0,2118.0
-25.0,-3461.0,-776.0,-113.0,3916.0,4000.0,1788.0,3535.0
85.0,-2402.0,-951.0,182.0,4000.0,4000.0,1693.0,3910.0
78.0,-1525.0,-1158.0,533.0,4000.0,4000.0,2973.0,3275.0
60.0,-743.0,-1022.0,864.0,2513.0,4000.0,2890.0,2042.0
33.0,253.0,-970.0,603.0,-2977.0,4000.0,1757.0,621.0
7.0,607.0,-886.0,33.0,-4000.0,4000.0,1670.0,1207.0
-4.0,615.0,-812.0,-122.0,-3213.0,3705.0,2570.0,1595.0
-32.0,530.0,-821.0,-282.0,-2289.0,2971.0,2814.0,861.0
3.0,329.0,-694.0,-388.0,-4000.0,2308.0,1984.0,-15.0
-17.0,191.0,-866.0,-344.0,-4000.0,1787.0,1734.0,-803.0
0.0,428.0,-906.0,-171.0,-4000.0,1344.0,1670.0,-592.0
-32.0,49.0,-914.0,-75.0,-4000.0,1639.0,1345.0,-1050.0
13.0,-57.0,-801.0,19.0,-4000.0,1592.0,1149.0,-610.0
74.0,82.0,-711.0,116.0,-4000.0,1991.0,1602.0,1142.0
54.0,65.0,-747.0,134.0,-4000.0,2759.0,1410.0,2367.0
34.0,328.0,-688.0,142.0,-4000.0,3070.0,1267.0,2313.0
-100.0,511.0,-743.0,99.0,-3120.0,3280.0,925.0,1322.0
-162.0,725.0,-716.0,149.0,4000.0,2759.0,-9.0,1264.0
-242.0,634.0,-612.0,48.0,4000.0,1124.0,-280.0,-166.0
-372.0,542.0,-484.0,-30.0,4000.0,-1975.0,76.0,-1613.0
-417.0,374.0,-407.0,15.0,4000.0,-4000.0,283.0,-758.0
-213.0,135.0,-356.0,41.0,4000.0,-4000.0,576.0,-2.0
-43.0,-14.0,-338.0,-23.0,4000.0,-4000.0,470.0,-928.0
-75.0,-210.0,-160.0,-85.0,4000.0,-4000.0,326.0,-1253.0
-80.0,-476.0,-15.0,8.0,4000.0,-4000.0,1332.0,-411.0
-49.0,-477.0,-20.0,85.0,4000.0,-4000.0,1602.0,-427.0
90.0,-183.0,-17.0,211.0,4000.0,-4000.0,1921.0,81.0
134.0,-163.0,-192.0,226.0,4000.0,-4000.0,2101.0,580.0
155.0,130.0,-224.0,138.0,4000.0,-4000.0,2061.0,358.0
184.0,374.0,-113.0,51.0,4000.0,-2026.0,2579.0,76.0
134.0,368.0,-76.0,-230.0,4000.0,4000.0,1919.0,-622.0
112.0,502.0,106.0,-501.0,4000.0,4000.0,1158.0,-1339.0
80.0,566.0,172.0,-580.0,4000.0,4000.0,19.0,-1859.0
72.0,607.0,102.0,-393.0,4000.0,4000.0,-1368.0,-2611.0
28.0,420.0,34.0,-214.0,4000.0,4000.0,-2988.0,-3333.0
-25.0,122.0,-83.0,-159.0,3772.0,4000.0,-4000.0,-4000.0
-10.0,108.0,-119.0,-47.0,2955.0,4000.0,-4000.0,-4000.0
-8.0,144.0,48.0,-18.0,-457.0,3621.0,-4000.0,-4000.0
25.0,119.0,170.0,-44.0,-4000.0,1163.0,-4000.0,-4000.0
21.0,126.0,8.0,-103.0,-4000.0,-875.0,-4000.0,-3138.0
-34.0,34.0,-108.0,-125.0,-4000.0,-2286.0,-4000.0,-1439.0
-38.0,-33.0,-59.0,-126.0,-4000.0,-2493.0,-3538.0,-840.0
-26.0,-44.0,-70.0,-141.0,-4000.0,-2185.0,-3059.0,-419.0
-22.0,-59.0,-180.0,-116.0,-4000.0,-1437.0,-4000.0,-105.0
-54.0,-69.0,-315.0,-140.0,-4000.0,-1135.0,-4000.0,634.0
-59.0,-82.0,-476.0,-202.0,-4000.0,-1317.0,-4000.0,2237.0
-37.0,-69.0,-469.0,-151.0,-4000.0,-2185.0,-4000.0,3161.0
-56.0,-81.0,-83.0,-46.0,-4000.0,-2922.0,-3603.0,3469.0
-71.0,-75.0,369.0,-33.0,-4000.0,-2909.0,-3962.0,3340.0
-52.0,-81.0,590.0,-13.0,-4000.0,-2857.0,-4000.0,2754.0
-34.0,-87.0,492.0,-2.0,-4000.0,-2738.0,-3835.0,2107.0
-34.0,-48.0,402.0,-14.0,-4000.0,-2738.0,-3681.0,2348.0
-35.0,8.0,272.0,-44.0,-4000.0,-3104.0,-3326.0,3469.0
-13.0,21.0,152.0,-9.0,-4000.0,-3990.0,-3342.0,4000.0
-8.0,-28.0,84.0,13.0,-4000.0,-4000.0,-3366.0,4000.0
8.0,-64.0,126.0,-5.0,-4000.0,-4000.0,-3082.0,4000.0
-12.0,-73.0,512.0,16.0,-4000.0,-4000.0,-2404.0,4000.0
-21.0,-57.0,410.0,-11.0,-2550.0,-4000.0,-2074.0,1753.0
-23.0,-62.0,-158.0,-55.0,272.0,-157.0,-2186.0,-4000.0
-44.0,-73.0,-236.0,-8.0,2569.0,3529.0,-1767.0,-4000.0
-21.0,-70.0,-377.0,74.0,4000.0,4000.0,-1312.0,-4000.0
-12.0,-44.0,-458.0,28.0,4000.0,4000.0,-227.0,-4000.0
0.0,-41.0,-343.0,43.0,4000.0,4000.0,623.0,-4000.0
35.0,-25.0,-436.0,120.0,2745.0,4000.0,753.0,-4000.0
43.0,47.0,-356.0,103.0,-247.0,1247.0,1214.0,-4000.0
34.0,73.0,-454.0,29.0,-2108.0,642.0,1591.0,-4000.0
27.0,47.0,-405.0,21.0,-4000.0,660.0,1786.0,-4000.0
11.0,-1.0,67.0,116.0,-4000.0,246.0,2318.0,-4000.0
-7.0,-115.0,385.0,61.0,-4000.0,469.0,3607.0,-4000.0
9.0,-174.0,385.0,-48.0,-4000.0,1266.0,4000.0,-4000.0
50.0,-137.0,582.0,51.0,-4000.0,2099.0,4000.0,-4000.0
58.0,-160.0,598.0,71.0,-4000.0,1657.0,4000.0,-4000.0
5.0,-183.0,178.0,39.0,-4000.0,1390.0,2890.0,-4000.0
-11.0,-130.0,-47.0,81.0,-4000.0,2424.0,2232.0,-4000.0
-30.0,-89.0,-242.0,103.0,-4000.0,4000.0,1341.0,-4000.0
-37.0,-35.0,-350.0,124.0,-4000.0,4000.0,407.0,-3649.0
-39.0,-27.0,-257.0,102.0,-4000.0,4000.0,930.0,680.0
-65.0,34.0,-344.0,93.0,-4000.0,4000.0,1119.0,4000.0
-61.0,95.0,-882.0,109.0,-4000.0,2382.0,478.0,4000.0
-56.0,95.0,-1036.0,102.0,-4000.0,-4000.0,-485.0,4000.0
-82.0,73.0,-941.0,22.0,-4000.0,-3387.0,-1985.0,4000.0
-86.0,-4.0,-631.0,16.0,-4000.0,781.0,-2368.0,4000.0
-69.0,-68.0,88.0,42.0,-4000.0,4000.0,-2549.0,4000.0
85.0,-54.0,541.0,40.0,-4000.0,4000.0,-2408.0,4000.0
281.0,21.0,1003.0,81.0,-3655.0,4000.0,-2405.0,3871.0
248.0,55.0,830.0,45.0,-3802.0,4000.0,-2495.0,3910.0
131.0,7.0,376.0,-66.0,-4000.0,967.0,-1917.0,4000.0
122.0,7.0,150.0,-88.0,-3917.0,-1053.0,-1551.0,4000.0
127.0,13.0,-144.0,-147.0,-3628.0,33.0,-713.0,4000.0
144.0,-1.0,77.0,-239.0,-3339.0,1462.0,181.0,4000.0
138.0,87.0,234.0,-281.0,-3083.0,62.0,1214.0,4000.0
50.0,73.0,217.0,-328.0,-2866.0,-2575.0,2191.0,4000.0
4.0,12.0,309.0,-263.0,-2513.0,-4000.0,3086.0,4000.0
-75.0,-21.0,728.0,-168.0,-360.0,-4000.0,3530.0,4000.0
-128.0,-97.0,1375.0,-163.0,2646.0,-4000.0,2908.0,4000.0
-155.0,-118.0,1673.0,-175.0,4000.0,-4000.0,1581.0,4000.0
-117.0,-109.0,1704.0,-111.0,4000.0,-4000.0,-332.0,4000.0
-69.0,-53.0,1680.0,-8.0,4000.0,-4000.0,-1848.0,4000.0
-84.0,-10.0,1365.0,6.0,4000.0,-4000.0,-1462.0,4000.0
-81.0,6.0,1033.0,-54.0,4000.0,-4000.0,2631.0,4000.0
-88.0,56.0,1119.0,7.0,4000.0,-4000.0,4000.0,4000.0
-56.0,20.0,1087.0,109.0,4000.0,-4000.0,4000.0,4000.0
-89.0,-15.0,917.0,106.0,4000.0,-4000.0,4000.0,4000.0
-111.0,83.0,775.0,89.0,4000.0,-4000.0,4000.0,4000.0
-104.0,197.0,713.0,59.0,4000.0,-178.0,4000.0,-1013.0
-106.0,122.0,716.0,45.0,4000.0,4000.0,-1513.0,-3844.0
-93.0,74.0,597.0,42.0,4000.0,4000.0,-4000.0,-3523.0
-49.0,121.0,476.0,42.0,4000.0,4000.0,-4000.0,-4000.0
-41.0,112.0,271.0,77.0,4000.0,4000.0,2619.0,-4000.0
-94.0,75.0,28.0,77.0,4000.0,1521.0,4000.0,-4000.0
-76.0,74.0,-115.0,25.0,4000.0,-4000.0,4000.0,-4000.0
-48.0,108.0,-74.0,40.0,4000.0,-4000.0,4000.0,-4000.0
-33.0,-5.0,-122.0,80.0,4000.0,-4000.0,4000.0,-4000.0
-51.0,-122.0,-122.0,103.0,4000.0,-4000.0,3917.0,-4000.0
-58.0,-65.0,-97.0,185.0,4000.0,-4000.0,2232.0,-4000.0
-55.0,-27.0,-26.0,207.0,3916.0,-4000.0,-401.0,-4000.0
-79.0,-101.0,89.0,207.0,2321.0,-2983.0,-2159.0,-4000.0
-69.0,-113.0,4.0,264.0,1539.0,4000.0,-1184.0,-4000.0
-33.0,-105.0,-29.0,276.0,480.0,4000.0,-1051.0,-4000.0
24.0,-43.0,-180.0,299.0,19.0,4000.0,-774.0,-4000.0
-4.0,34.0,-304.0,271.0,-798.0,4000.0,-1201.0,-4000.0
-16.0,16.0,-225.0,130.0,-995.0,4000.0,-2276.0,-4000.0
7.0,49.0,-350.0,44.0,-400.0,4000.0,-1684.0,-4000.0
26.0,45.0,-519.0,4.0,-847.0,4000.0,-261.0,-4000.0
45.0,36.0,-494.0,-49.0,-2859.0,4000.0,551.0,-4000.0
72.0,30.0,-503.0,-51.0,-4000.0,4000.0,980.0,-4000.0
74.0,-8.0,-490.0,-57.0,-4000.0,4000.0,883.0,-4000.0
44.0,6.0,-393.0,-80.0,-3474.0,4000.0,376.0,-4000.0
64.0,47.0,-36.0,40.0,-1571.0,4000.0,138.0,-4000.0
63.0,41.0,374.0,229.0,-105.0,4000.0,111.0,-4000.0
82.0,20.0,317.0,268.0,758.0,4000.0,-390.0,-4000.0
77.0,54.0,263.0,142.0,1201.0,4000.0,-1397.0,-4000.0
49.0,87.0,272.0,-104.0,2448.0,3857.0,-1848.0,-2488.0
39.0,70.0,50.0,-198.0,3399.0,664.0,-1519.0,601.0
21.0,58.0,-147.0,-200.0,4000.0,-3813.0,-998.0,3458.0
-19.0,135.0,-165.0,-310.0,4000.0,-4000.0,-882.0,4000.0
-85.0,120.0,-140.0,-277.0,4000.0,-4000.0,-906.0,4000.0
-108.0,-4.0,-198.0,-194.0,4000.0,-4000.0,-579.0,4000.0
-122.0,-97.0,-234.0,-104.0,4000.0,-4000.0,72.0,4000.0
-113.0,-174.0,-212.0,-75.0,4000.0,-4000.0,166.0,4000.0
-74.0,-188.0,-265.0,-129.0,4000.0,-4000.0,-133.0,4000.0
-41.0,-157.0,-373.0,-72.0,3332.0,-4000.0,-255.0,4000.0
52.0,-106.0,-466.0,-64.0,479.0,-4000.0,-198.0,4000.0
72.0,-78.0,-576.0,-81.0,-1247.0,-4000.0,120.0,4000.0
55.0,-101.0,-562.0,-95.0,-818.0,-4000.0,472.0,4000.0
62.0,-55.0,-479.0,-97.0,-3339.0,-4000.0,469.0,4000.0
31.0,53.0,-385.0,-94.0,-4000.0,-4000.0,-485.0,4000.0
24.0,200.0,-224.0,-80.0,-4000.0,-4000.0,-1254.0,4000.0
15.0,215.0,-255.0,-80.0,-4000.0,-4000.0,-859.0,4000.0
-13.0,105.0,-133.0,-84.0,-4000.0,-4000.0,-459.0,4000.0
-36.0,-70.0,169.0,-23.0,-4000.0,-4000.0,-359.0,4000.0
-44.0,-220.0,238.0,-90.0,-4000.0,-4000.0,-716.0,4000.0
-25.0,-151.0,-40.0,-170.0,-4000.0,-4000.0,-1571.0,4000.0
25.0,-39.0,-379.0,-101.0,-4000.0,-3583.0,-2353.0,4000.0
111.0,-63.0,-80.0,-21.0,-4000.0,-1062.0,-3443.0,4000.0
135.0,-42.0,4.0,4.0,-4000.0,1864.0,-4000.0,4000.0
17.0,260.0,-434.0,25.0,-4000.0,4000.0,-3924.0,4000.0
-15.0,327.0,-636.0,31.0,-4000.0,4000.0,-3725.0,4000.0
-95.0,102.0,-536.0,38.0,-4000.0,4000.0,-4000.0,4000.0
-150.0,105.0,-219.0,40.0,-4000.0,4000.0,-4000.0,4000.0
-157.0,31.0,-60.0,20.0,-4000.0,4000.0,-4000.0,4000.0
-140.0,-7.0,-110.0,22.0,-4000.0,4000.0,-4000.0,4000.0
-21.0,16.0,-224.0,-42.0,-4000.0,4000.0,-3314.0,4000.0
58.0,38.0,-255.0,-159.0,-4000.0,4000.0,-2471.0,4000.0
139.0,89.0,-46.0,-137.0,-4000.0,4000.0,-2465.0,4000.0
112.0,70.0,299.0,-37.0,-4000.0,4000.0,-1637.0,4000.0
120.0,67.0,337.0,24.0,-4000.0,4000.0,61.0,4000.0
146.0,111.0,-187.0,33.0,-705.0,4000.0,889.0,3393.0
100.0,167.0,-380.0,59.0,3606.0,4000.0,948.0,2437.0
37.0,60.0,-515.0,75.0,4000.0,4000.0,1398.0,1623.0
-2.0,-56.0,-490.0,66.0,4000.0,4000.0,1801.0,1195.0
3.0,-87.0,-215.0,87.0,4000.0,4000.0,2061.0,541.0
-41.0,-121.0,-253.0,11.0,4000.0,4000.0,2291.0,-64.0
-62.0,-128.0,-173.0,-24.0,4000.0,4000.0,2696.0,-627.0
-28.0,-33.0,-109.0,-3.0,4000.0,3036.0,2908.0,-1058.0
-49.0,-56.0,137.0,-24.0,4000.0,491.0,3009.0,-1191.0
-41.0,-134.0,297.0,-1.0,4000.0,-2061.0,3086.0,-1083.0
-27.0,-109.0,190.0,-8.0,4000.0,-4000.0,3144.0,-983.0
-63.0,-75.0,154.0,27.0,4000.0,-4000.0,3494.0,-1057.0
-84.0,-31.0,256.0,38.0,4000.0,-4000.0,4000.0,-1143.0
-74.0,1.0,299.0,32.0,4000.0,-4000.0,4000.0,-1123.0
-11.0,8.0,266.0,72.0,4000.0,-4000.0,4000.0,-1013.0
17.0,-48.0,158.0,106.0,4000.0,-4000.0,4000.0,-883.0
61.0,-35.0,30.0,67.0,4000.0,-4000.0,4000.0,-594.0
50.0,-31.0,50.0,-6.0,4000.0,-4000.0,4000.0,-325.0
20.0,-46.0,-78.0,-116.0,4000.0,-4000.0,4000.0,-207.0
20.0,17.0,-154.0,-188.0,4000.0,-4000.0,4000.0,-153.0
-24.0,31.0,-91.0,-133.0,4000.0,-4000.0,4000.0,-111.0
-70.0,40.0,-22.0,-194.0,4000.0,-4000.0,3411.0,73.0
-81.0,34.0,79.0,-146.0,4000.0,-4000.0,2826.0,71.0
-59.0,58.0,140.0,-47.0,4000.0,-4000.0,2307.0,-269.0
-67.0,115.0,112.0,-129.0,4000.0,-1507.0,1825.0,-413.0
-31.0,118.0,238.0,-104.0,4000.0,1390.0,1214.0,-758.0
18.0,78.0,618.0,-37.0,4000.0,3855.0,627.0,-1261.0
27.0,63.0,630.0,34.0,4000.0,4000.0,232.0,-1829.0
85.0,108.0,337.0,42.0,4000.0,4000.0,-235.0,-2611.0
127.0,103.0,75.0,-10.0,4000.0,4000.0,-649.0,-3113.0
113.0,-2.0,-415.0,-15.0,4000.0,4000.0,-876.0,-3582.0
122.0,-147.0,-734.0,40.0,4000.0,4000.0,-1163.0,-3904.0
67.0,-231.0,-781.0,-14.0,4000.0,4000.0,-1527.0,-4000.0
-46.0,-314.0,-318.0,-20.0,4000.0,4000.0,-1783.0,-4000.0
5.0,-261.0,135.0,69.0,3037.0,4000.0,-2080.0,-4000.0
17.0,-203.0,183.0,12.0,1148.0,4000.0,-2408.0,-4000.0
1.0,-188.0,324.0,2.0,-803.0,4000.0,-2728.0,-4000.0
38.0,-77.0,125.0,-22.0,-2606.0,4000.0,-2934.0,-4000.0
-29.0,-11.0,122.0,-72.0,-4000.0,4000.0,-3147.0,-4000.0
-47.0,52.0,272.0,-86.0,-4000.0,4000.0,-3326.0,-4000.0
-90.0,102.0,205.0,-72.0,-4000.0,4000.0,-3441.0,-4000.0
-132.0,87.0,234.0,-61.0,-4000.0,3914.0,-3581.0,-4000.0
-89.0,99.0,318.0,-94.0,-4000.0,3018.0,-3700.0,-4000.0
-94.0,89.0,309.0,-83.0,-4000.0,1704.0,-3801.0,-4000.0
-73.0,1.0,183.0,-71.0,-4000.0,32.0,-3833.0,-4000.0
-69.0,-141.0,37.0,-61.0,-4000.0,-1850.0,-3866.0,-4000.0
-88.0,-121.0,-59.0,-55.0,-4000.0,-4000.0,-3834.0,-4000.0
-37.0,-40.0,-91.0,-37.0,-4000.0,-4000.0,-3688.0,-4000.0
-18.0,6.0,-144.0,-60.0,-4000.0,-4000.0,-3538.0,-4000.0
-49.0,103.0,-140.0,-47.0,-4000.0,-4000.0,-3432.0,-4000.0
-76.0,126.0,-220.0,-33.0,-4000.0,-4000.0,-3379.0,-4000.0
-77.0,199.0,-219.0,-41.0,-4000.0,-4000.0,-3367.0,-4000.0
-27.0,176.0,-165.0,-51.0,-4000.0,-4000.0,-3301.0,-4000.0
-21.0,109.0,-200.0,-68.0,-4000.0,-4000.0,-3184.0,-4000.0
-9.0,41.0,-40.0,-19.0,-4000.0,-4000.0,-3050.0,-4000.0
9.0,-19.0,-56.0,-30.0,-4000.0,-4000.0,-2988.0,-4000.0
-25.0,-31.0,-132.0,-82.0,-4000.0,-4000.0,-2858.0,-4000.0
-13.0,-122.0,-112.0,-83.0,-4000.0,-3984.0,-2756.0,-4000.0
-24.0,-168.0,-132.0,-63.0,-4000.0,-2547.0,-2650.0,-4000.0
-58.0,-188.0,-56.0,-78.0,-4000.0,-1496.0,-2483.0,-4000.0
-74.0,-150.0,60.0,-22.0,-4000.0,-712.0,-2355.0,-4000.0
-74.0,-163.0,92.0,22.0,-4000.0,-57.0,-2074.0,-4000.0
-8.0,-153.0,64.0,18.0,-4000.0,544.0,-1755.0,-4000.0
31.0,-59.0,53.0,0.0,-4000.0,1163.0,-1551.0,-4000.0
-12.0,-7.0,60.0,4.0,-4000.0,1417.0,-1397.0,-4000.0
28.0,56.0,68.0,61.0,-4000.0,1462.0,-1308.0,-4000.0
34.0,115.0,71.0,47.0,-4000.0,1854.0,-1184.0,-3760.0
-9.0,148.0,71.0,81.0,-4000.0,2243.0,-1042.0,-2872.0
13.0,66.0,48.0,102.0,-4000.0,2447.0,-817.0,-2165.0
38.0,-177.0,9.0,102.0,-4000.0,2645.0,-546.0,-1672.0
35.0,-278.0,-10.0,103.0,-4000.0,2377.0,-290.0,-1310.0
60.0,-77.0,-35.0,98.0,-4000.0,1445.0,17.0,-818.0
97.0,114.0,-28.0,94.0,-4000.0,160.0,283.0,-284.0
72.0,227.0,27.0,144.0,-4000.0,-1200.0,441.0,139.0
60.0,250.0,64.0,347.0,-4000.0,-2712.0,538.0,479.0
71.0,282.0,150.0,264.0,-4000.0,-4000.0,491.0,751.0
39.0,448.0,183.0,-116.0,-4000.0,-4000.0,441.0,927.0
9.0,725.0,55.0,-211.0,-4000.0,-4000.0,441.0,1272.0
7.0,774.0,-22.0,-124.0,-3586.0,-4000.0,439.0,1598.0
44.0,399.0,10.0,-18.0,-2212.0,-4000.0,563.0,1859.0
82.0,18.0,125.0,25.0,-421.0,-4000.0,795.0,2119.0
27.0,-395.0,201.0,23.0,1193.0,-4000.0,881.0,2183.0
2.0,-736.0,252.0,45.0,2124.0,-4000.0,903.0,2078.0
2.0,-802.0,237.0,-8.0,2683.0,-4000.0,897.0,1989.0
21.0,-501.0,60.0,-21.0,3916.0,-4000.0,823.0,2172.0
42.0,-212.0,-29.0,-16.0,4000.0,-4000.0,795.0,2183.0
50.0,105.0,5.0,31.0,4000.0,-3946.0,788.0,2219.0
59.0,383.0,77.0,20.0,4000.0,-3039.0,812.0,2218.0
20.0,461.0,63.0,25.0,4000.0,-1975.0,809.0,2118.0
3.0,489.0,23.0,40.0,4000.0,-973.0,772.0,2118.0
-17.0,457.0,77.0,59.0,4000.0,51.0,707.0,2107.0
-20.0,485.0,125.0,84.0,4000.0,1026.0,598.0,2118.0
-26.0,374.0,148.0,45.0,4000.0,1864.0,563.0,2106.0
-45.0,372.0,30.0,45.0,4000.0,2566.0,538.0,2025.0
-56.0,225.0,-99.0,19.0,3005.0,3231.0,590.0,1859.0
-2.0,-63.0,-35.0,9.0,2125.0,3857.0,660.0,1663.0
-1.0,-375.0,-45.0,-23.0,823.0,4000.0,772.0,1450.0
-34.0,-527.0,-46.0,-24.0,-372.0,4000.0,1070.0,1241.0
-16.0,-265.0,2.0,-34.0,-1174.0,4000.0,1314.0,947.0
-13.0,-85.0,-50.0,-57.0,-1835.0,4000.0,1463.0,634.0
-9.0,75.0,-38.0,-37.0,-1756.0,4000.0,1574.0,329.0
-45.0,193.0,-41.0,-53.0,-746.0,4000.0,1605.0,18.0
-16.0,355.0,-43.0,-49.0,672.0,4000.0,1645.0,-109.0
8.0,363.0,10.0,-20.0,2189.0,4000.0,1602.0,-194.0
-39.0,217.0,27.0,24.0,3074.0,4000.0,1528.0,-228.0
-48.0,256.0,21.0,-49.0,2551.0,4000.0,1475.0,-89.0
-71.0,16.0,31.0,-111.0,1254.0,4000.0,1397.0,111.0
-19.0,-212.0,85.0,-74.0,-411.0,3409.0,1267.0,281.0
1.0,-427.0,100.0,-70.0,-1455.0,3036.0,1084.0,434.0
-52.0,-521.0,36.0,-68.0,-1229.0,3005.0,954.0,569.0
-9.0,-454.0,35.0,-47.0,-242.0,3069.0,844.0,723.0
18.0,-383.0,12.0,-22.0,1521.0,2888.0,681.0,914.0
8.0,-206.0,-44.0,-59.0,3150.0,2946.0,726.0,1272.0
-17.0,-93.0,-64.0,-62.0,4000.0,2682.0,945.0,1638.0
-58.0,-5.0,-64.0,0.0,4000.0,2243.0,1379.0,1781.0
-31.0,-129.0,-70.0,48.0,4000.0,1733.0,1972.0,1914.0
-27.0,-31.0,-87.0,18.0,4000.0,1189.0,2514.0,2051.0
-34.0,86.0,-79.0,-8.0,4000.0,933.0,3075.0,2154.0
-29.0,-36.0,-111.0,22.0,4000.0,384.0,3477.0,2313.0
-30.0,-82.0,-152.0,-4.0,4000.0,35.0,3745.0,2433.0
-44.0,-89.0,-187.0,-29.0,4000.0,-266.0,3990.0,2042.0
-44.0,-44.0,-190.0,-63.0,4000.0,-786.0,4000.0,1411.0
-34.0,-92.0,-106.0,-82.0,4000.0,-964.0,4000.0,1568.0
-34.0,-122.0,-36.0,-54.0,4000.0,-1505.0,3905.0,2041.0
2.0,-89.0,7.0,-33.0,4000.0,-1715.0,3983.0,1914.0
-9.0,-18.0,77.0,-127.0,4000.0,-1290.0,4000.0,1989.0
-18.0,-34.0,118.0,-243.0,4000.0,-1356.0,4000.0,2095.0
-24.0,-68.0,82.0,-206.0,4000.0,-1172.0,4000.0,1986.0
-8.0,-44.0,74.0,-168.0,4000.0,-1042.0,4000.0,1924.0
-11.0,-32.0,9.0,-128.0,4000.0,-875.0,3838.0,1728.0
-19.0,-2.0,-41.0,-112.0,4000.0,-615.0,3103.0,1728.0
-13.0,34.0,-83.0,-57.0,4000.0,-373.0,2309.0,1663.0
-15.0,98.0,-97.0,31.0,4000.0,172.0,1475.0,1568.0
-8.0,105.0,-102.0,84.0,4000.0,687.0,1010.0,1468.0
-9.0,120.0,-109.0,182.0,4000.0,1182.0,429.0,1476.0
3.0,142.0,-70.0,194.0,4000.0,1443.0,-171.0,1411.0
-5.0,111.0,-89.0,97.0,4000.0,1639.0,-912.0,1307.0
0.0,54.0,-105.0,26.0,4000.0,1769.0,-2028.0,1260.0
-22.0,23.0,-125.0,-50.0,4000.0,1822.0,-3185.0,1176.0
-29.0,-69.0,-115.0,-161.0,4000.0,1907.0,-4000.0,1136.0
-16.0,-136.0,-82.0,-132.0,4000.0,1981.0,-4000.0,1069.0
-1.0,-118.0,-54.0,59.0,4000.0,2045.0,-4000.0,1071.0
33.0,-78.0,-49.0,33.0,4000.0,2084.0,-4000.0,1071.0
4.0,-8.0,-79.0,-121.0,4000.0,2045.0,-4000.0,1091.0
4.0,26.0,-50.0,-98.0,4000.0,1929.0,-4000.0,1199.0
39.0,34.0,-42.0,-38.0,4000.0,1824.0,-4000.0,1319.0
18.0,13.0,-49.0,23.0,4000.0,1734.0,-4000.0,1445.0
-2.0,33.0,-82.0,-8.0,4000.0,1601.0,-4000.0,1456.0
-29.0,38.0,-129.0,9.0,3493.0,1417.0,-4000.0,1456.0
-61.0,21.0,-157.0,23.0,3202.0,1222.0,-4000.0,1456.0
-69.0,-11.0,-165.0,25.0,2683.0,991.0,-3733.0,1468.0
-81.0,-23.0,-82.0,157.0,1287.0,831.0,-3338.0,1521.0
-68.0,-21.0,-39.0,209.0,-1446.0,619.0,-2985.0,1568.0
-60.0,-49.0,7.0,99.0,-4000.0,358.0,-2858.0,1633.0
-56.0,-15.0,67.0,-98.0,-4000.0,210.0,-2793.0,1638.0
-36.0,-20.0,10.0,-198.0,-4000.0,102.0,-2691.0,1649.0
-55.0,-21.0,20.0,-147.0,-4000.0,66.0,-2394.0,1716.0
-67.0,-43.0,14.0,-50.0,-4000.0,-19.0,-1952.0,1753.0
-63.0,-101.0,7.0,-119.0,-4000.0,-146.0,-1572.0,1651.0
-63.0,-91.0,41.0,-118.0,-4000.0,-156.0,-1116.0,1399.0
-58.0,-49.0,17.0,-124.0,-4000.0,-232.0,-646.0,1134.0
-47.0,1.0,14.0,-123.0,-4000.0,-382.0,-205.0,947.0
-25.0,-8.0,41.0,-65.0,-4000.0,-489.0,311.0,760.0
-19.0,-40.0,71.0,-70.0,-4000.0,-765.0,962.0,695.0
-40.0,-32.0,41.0,-36.0,-4000.0,-966.0,1843.0,695.0
-15.0,0.0,-33.0,-67.0,-4000.0,-1070.0,2582.0,634.0
-19.0,-10.0,-123.0,-100.0,-4000.0,-1200.0,3009.0,713.0
-21.0,-150.0,-206.0,-94.0,-4000.0,-1322.0,2890.0,890.0
-25.0,-362.0,-277.0,-111.0,-4000.0,-1505.0,2291.0,896.0
-45.0,-261.0,-219.0,-120.0,-4000.0,-1569.0,1723.0,947.0
9.0,-153.0,-166.0,-114.0,-4000.0,-1670.0,1454.0,1077.0
25.0,-92.0,-79.0,-125.0,-4000.0,-1729.0,1519.0,1142.0
21.0,46.0,165.0,-53.0,-4000.0,-1715.0,1760.0,1195.0
26.0,126.0,279.0,44.0,-4000.0,-1709.0,2190.0,1201.0
47.0,273.0,183.0,39.0,-3456.0,-1688.0,2712.0,1241.0
50.0,347.0,85.0,16.0,-2010.0,-1715.0,2944.0,1266.0
40.0,516.0,130.0,105.0,-773.0,-1663.0,2890.0,1399.0
33.0,556.0,141.0,161.0,253.0,-1585.0,2761.0,1502.0
-2.0,400.0,141.0,152.0,792.0,-1880.0,2423.0,1574.0
12.0,276.0,122.0,134.0,-94.0,-2353.0,1967.0,1598.0
-5.0,120.0,76.0,122.0,-1267.0,-2406.0,1639.0,1568.0
-29.0,46.0,39.0,127.0,-1626.0,-2315.0,1288.0,1533.0
5.0,28.0,-48.0,18.0,-1094.0,-2366.0,1076.0,1411.0
17.0,-43.0,-42.0,-53.0,880.0,-2228.0,832.0,1259.0
26.0,-46.0,-68.0,-69.0,3916.0,-2008.0,525.0,1130.0
51.0,-81.0,-91.0,-41.0,4000.0,-1461.0,193.0,1052.0
77.0,-59.0,-146.0,67.0,4000.0,-932.0,-156.0,911.0
59.0,-7.0,-138.0,81.0,4000.0,-881.0,-280.0,837.0
43.0,-29.0,-47.0,87.0,4000.0,-911.0,-110.0,788.0
95.0,47.0,-76.0,99.0,4000.0,-436.0,106.0,635.0
145.0,84.0,-20.0,72.0,4000.0,286.0,194.0,499.0
97.0,-130.0,88.0,33.0,4000.0,498.0,299.0,401.0
31.0,-270.0,121.0,-46.0,4000.0,496.0,227.0,296.0
29.0,-310.0,105.0,-82.0,4000.0,463.0,79.0,242.0
-12.0,-552.0,24.0,-23.0,4000.0,415.0,-117.0,246.0
-15.0,-575.0,-21.0,50.0,4000.0,333.0,-385.0,159.0
7.0,-347.0,-30.0,64.0,4000.0,62.0,-355.0,111.0
36.0,30.0,-38.0,99.0,4000.0,-141.0,-86.0,41.0
54.0,353.0,42.0,245.0,4000.0,-186.0,386.0,-10.0
32.0,471.0,59.0,252.0,4000.0,-332.0,787.0,-25.0
27.0,522.0,43.0,158.0,4000.0,-464.0,945.0,-89.0
4.0,457.0,67.0,63.0,4000.0,-531.0,1206.0,-73.0
12.0,355.0,32.0,-84.0,4000.0,-571.0,1658.0,-76.0
1.0,319.0,14.0,-186.0,4000.0,-578.0,1931.0,-177.0
11.0,273.0,31.0,-164.0,4000.0,-597.0,1939.0,-202.0
25.0,212.0,3.0,-208.0,3623.0,-602.0,1731.0,-236.0
-4.0,126.0,-13.0,-332.0,622.0,-613.0,1593.0,-226.0
-17.0,66.0,-26.0,-336.0,-3446.0,-546.0,1723.0,-151.0
-28.0,22.0,-48.0,-312.0,-4000.0,-521.0,1825.0,-159.0
-58.0,-25.0,-26.0,-255.0,-4000.0,-419.0,1769.0,-124.0
-83.0,-28.0,-66.0,-155.0,-4000.0,-358.0,1519.0,-45.0
-77.0,-45.0,-82.0,199.0,-4000.0,-316.0,1149.0,15.0
-83.0,-69.0,-67.0,245.0,-4000.0,-211.0,619.0,18.0
-90.0,-79.0,-121.0,-255.0,-4000.0,-140.0,19.0,-19.0
-123.0,-78.0,-92.0,-487.0,-4000.0,30.0,-247.0,23.0
-107.0,-56.0,-49.0,-560.0,-4000.0,109.0,164.0,174.0
-79.0,-94.0,-35.0,-366.0,-4000.0,104.0,478.0,192.0
-98.0,-179.0,-52.0,-125.0,-4000.0,104.0,404.0,66.0
-93.0,-253.0,-40.0,62.0,-1188.0,176.0,119.0,-105.0
-65.0,-324.0,7.0,264.0,522.0,262.0,-340.0,-240.0
-47.0,-301.0,-49.0,211.0,-712.0,351.0,-511.0,-248.0
-24.0,-230.0,-80.0,260.0,-1244.0,445.0,-717.0,-218.0
-32.0,-162.0,-96.0,402.0,-1584.0,542.0,-977.0,-203.0
-24.0,-102.0,-78.0,439.0,-2692.0,608.0,-989.0,-90.0
-18.0,-100.0,-133.0,410.0,-4000.0,576.0,-709.0,63.0
-34.0,-76.0,-212.0,425.0,-4000.0,615.0,-489.0,-42.0
-3.0,-28.0,-167.0,329.0,-4000.0,608.0,-320.0,-66.0
-3.0,21.0,-170.0,220.0,-4000.0,641.0,210.0,249.0
-16.0,-49.0,-224.0,182.0,-4000.0,660.0,171.0,290.0
-27.0,-155.0,-268.0,195.0,-4000.0,669.0,-485.0,144.0
-1.0,-157.0,-258.0,101.0,-4000.0,713.0,-1173.0,-217.0
6.0,-102.0,-157.0,-18.0,-4000.0,793.0,-1422.0,-1065.0
-16.0,-15.0,-124.0,-79.0,-4000.0,882.0,-1136.0,-1756.0
-44.0,66.0,-165.0,-162.0,-4000.0,888.0,-998.0,-2166.0
-67.0,122.0,8.0,-169.0,-4000.0,870.0,-882.0,-2518.0
-72.0,85.0,172.0,-198.0,-4000.0,771.0,-836.0,-2741.0
-60.0,73.0,299.0,-165.0,-4000.0,725.0,-530.0,-3138.0
-22.0,225.0,343.0,-162.0,-4000.0,660.0,-23.0,-3695.0
8.0,459.0,349.0,-239.0,-4000.0,659.0,-130.0,-4000.0
55.0,341.0,450.0,-196.0,-4000.0,571.0,-530.0,-4000.0
90.0,198.0,390.0,-143.0,-4000.0,480.0,-902.0,-4000.0
111.0,145.0,284.0,-151.0,-4000.0,641.0,-973.0,-4000.0
125.0,-20.0,218.0,-96.0,-4000.0,590.0,-338.0,-3842.0
155.0,49.0,205.0,-82.0,-4000.0,408.0,189.0,-3695.0
204.0,-46.0,106.0,-123.0,-4000.0,231.0,331.0,-3527.0
299.0,-144.0,-3.0,-76.0,-4000.0,129.0,86.0,-3387.0
314.0,-166.0,39.0,-9.0,-4000.0,112.0,-313.0,-3178.0
202.0,-318.0,10.0,-29.0,-4000.0,15.0,-320.0,-3024.0
109.0,-340.0,-45.0,-45.0,-4000.0,-89.0,-287.0,-2824.0
-30.0,-220.0,-72.0,-78.0,-4000.0,-247.0,-322.0,-2617.0
-118.0,-118.0,-90.0,-90.0,-4000.0,-375.0,-266.0,-2350.0
-185.0,-15.0,-51.0,-37.0,-4000.0,-459.0,120.0,-1959.0
-284.0,27.0,-90.0,-18.0,-4000.0,-511.0,294.0,-1540.0
-113.0,9.0,-56.0,-4.0,-4000.0,-620.0,-13.0,-1114.0
305.0,60.0,-43.0,-13.0,-3917.0,-761.0,-257.0,-718.0
436.0,74.0,-143.0,-31.0,-3066.0,-816.0,-420.0,-315.0
174.0,79.0,-183.0,7.0,-1991.0,-875.0,-346.0,22.0
-52.0,50.0,-248.0,47.0,-1185.0,-807.0,-182.0,387.0
-228.0,68.0,-246.0,88.0,-215.0,-743.0,-47.0,784.0
-327.0,75.0,-124.0,130.0,609.0,-790.0,141.0,1077.0
-392.0,55.0,-92.0,150.0,1531.0,-791.0,267.0,1257.0
-372.0,41.0,-73.0,132.0,2695.0,-790.0,352.0,1207.0
-227.0,46.0,199.0,116.0,2955.0,-875.0,155.0,1216.0
-131.0,79.0,476.0,121.0,3150.0,-867.0,2.0,1325.0
-28.0,75.0,689.0,97.0,3334.0,-620.0,149.0,1399.0
-85.0,80.0,606.0,-25.0,3875.0,-541.0,220.0,1260.0
-170.0,70.0,304.0,-197.0,4000.0,-600.0,158.0,922.0
-234.0,90.0,128.0,-202.0,4000.0,-645.0,45.0,595.0
-227.0,67.0,142.0,-163.0,4000.0,-852.0,24.0,450.0
-85.0,73.0,60.0,-180.0,4000.0,-1050.0,71.0,387.0
-25.0,132.0,-5.0,-95.0,4000.0,-1182.0,158.0,196.0
-43.0,128.0,36.0,-16.0,4000.0,-1265.0,189.0,127.0
-17.0,99.0,-116.0,-5.0,4000.0,-1505.0,69.0,38.0
39.0,85.0,-111.0,32.0,4000.0,-1782.0,13.0,-63.0
86.0,102.0,-111.0,90.0,3707.0,-1396.0,-23.0,-29.0
100.0,46.0,-160.0,37.0,3916.0,-1005.0,-45.0,-268.0
66.0,36.0,-151.0,-57.0,4000.0,-855.0,-44.0,-730.0
76.0,25.0,-80.0,-82.0,4000.0,-485.0,-71.0,-915.0
32.0,-48.0,73.0,-66.0,4000.0,-293.0,-74.0,-846.0
56.0,-58.0,15.0,-112.0,4000.0,-36.0,-161.0,-824.0
299.0,-74.0,-141.0,-164.0,4000.0,-84.0,-117.0,-809.0
705.0,-48.0,-225.0,-137.0,4000.0,-347.0,42.0,-718.0
644.0,-19.0,-274.0,-103.0,4000.0,-419.0,107.0,-590.0
260.0,-59.0,-162.0,-77.0,4000.0,-448.0,246.0,-305.0
61.0,-32.0,140.0,-55.0,4000.0,-433.0,338.0,-104.0
-190.0,-10.0,298.0,37.0,4000.0,-481.0,303.0,-219.0
-262.0,-27.0,9.0,139.0,4000.0,-419.0,233.0,-124.0
-354.0,3.0,-328.0,134.0,4000.0,-434.0,171.0,27.0
-386.0,-28.0,-651.0,118.0,4000.0,-419.0,22.0,6.0
-372.0,-38.0,-893.0,48.0,4000.0,-450.0,-43.0,3.0
-383.0,-42.0,-709.0,54.0,4000.0,-531.0,-49.0,-17.0
-175.0,-65.0,-450.0,59.0,4000.0,-685.0,-182.0,92.0
-58.0,-14.0,-52.0,63.0,4000.0,-901.0,-221.0,149.0
42.0,16.0,331.0,100.0,4000.0,-1042.0,-206.0,170.0
13.0,22.0,541.0,99.0,3902.0,-1056.0,-163.0,206.0
-38.0,-1.0,807.0,69.0,3346.0,-680.0,-130.0,227.0
-32.0,34.0,852.0,-4.0,3085.0,-489.0,5.0,142.0
-85.0,89.0,546.0,-46.0,3346.0,-393.0,286.0,-73.0
-28.0,117.0,676.0,-86.0,3916.0,-195.0,413.0,-327.0
-23.0,176.0,785.0,-31.0,4000.0,-84.0,366.0,-448.0
15.0,170.0,364.0,11.0,3410.0,34.0,297.0,-360.0
46.0,132.0,-28.0,-54.0,2838.0,137.0,188.0,-401.0
55.0,108.0,-183.0,-29.0,2189.0,282.0,141.0,-496.0
110.0,13.0,-401.0,-5.0,1627.0,619.0,199.0,-529.0
92.0,-108.0,-890.0,-41.0,1539.0,1189.0,300.0,-644.0
39.0,-163.0,-976.0,-85.0,1163.0,1592.0,441.0,-679.0
-24.0,-193.0,-753.0,-147.0,1148.0,2124.0,329.0,-366.0
8.0,-206.0,-454.0,-214.0,1051.0,2694.0,171.0,-197.0
33.0,-218.0,253.0,-115.0,393.0,3125.0,551.0,-223.0
-6.0,-260.0,903.0,48.0,509.0,3666.0,759.0,-166.0
-7.0,-279.0,828.0,144.0,1901.0,4000.0,498.0,-370.0
31.0,-303.0,663.0,182.0,3212.0,4000.0,-3.0,-664.0
-24.0,-275.0,657.0,116.0,2825.0,4000.0,-615.0,-875.0
-58.0,-169.0,964.0,80.0,3037.0,4000.0,-862.0,-911.0
-32.0,-108.0,1033.0,42.0,4000.0,4000.0,-685.0,-875.0
-2.0,46.0,307.0,6.0,4000.0,4000.0,197.0,-953.0
103.0,164.0,-519.0,-133.0,4000.0,4000.0,767.0,-999.0
131.0,176.0,-1302.0,-293.0,4000.0,4000.0,409.0,-947.0
107.0,140.0,-1388.0,-260.0,4000.0,4000.0,127.0,-953.0
88.0,60.0,-1036.0,-246.0,4000.0,4000.0,-49.0,-992.0
27.0,5.0,-906.0,-219.0,4000.0,4000.0,-20.0,-883.0
-215.0,-143.0,-440.0,32.0,4000.0,3539.0,65.0,-1037.0
-268.0,-224.0,425.0,290.0,4000.0,2744.0,53.0,-1206.0
-64.0,-190.0,914.0,290.0,4000.0,1929.0,-131.0,-1330.0
150.0,-43.0,511.0,223.0,4000.0,1248.0,-489.0,-1461.0
241.0,57.0,-66.0,55.0,4000.0,607.0,-781.0,-1449.0
131.0,121.0,-105.0,-168.0,4000.0,-269.0,-964.0,-1558.0
150.0,217.0,16.0,-448.0,4000.0,-1057.0,-967.0,-1839.0
102.0,217.0,516.0,-523.0,4000.0,-1623.0,-769.0,-1998.0
232.0,282.0,1614.0,-293.0,4000.0,-2170.0,-424.0,-1951.0
328.0,273.0,2412.0,-51.0,4000.0,-2569.0,-290.0,-1885.0
253.0,233.0,2018.0,-45.0,4000.0,-2815.0,-137.0,-1738.0
249.0,241.0,931.0,-79.0,4000.0,-3010.0,-75.0,-1655.0
34.0,240.0,16.0,100.0,3232.0,-3117.0,-204.0,-1540.0
-248.0,168.0,-458.0,115.0,2060.0,-3209.0,-442.0,-1143.0
-360.0,135.0,-996.0,62.0,953.0,-3311.0,-774.0,-665.0
-294.0,85.0,-1275.0,35.0,-631.0,-3442.0,-442.0,-159.0
-211.0,-92.0,-1263.0,-21.0,-1049.0,-3583.0,219.0,220.0
-169.0,-259.0,-1462.0,-130.0,-1049.0,-3559.0,142.0,373.0
-161.0,-338.0,-1203.0,-191.0,-2187.0,-3506.0,-379.0,556.0
65.0,-156.0,-617.0,-202.0,-3982.0,-3336.0,-769.0,765.0
125.0,-31.0,80.0,-50.0,-4000.0,-2909.0,-751.0,876.0
28.0,-27.0,238.0,193.0,-4000.0,-2338.0,9.0,1118.0
-23.0,16.0,-146.0,134.0,-4000.0,-1607.0,945.0,1456.0
-53.0,28.0,19.0,132.0,-4000.0,-856.0,889.0,1281.0
-25.0,24.0,345.0,182.0,-4000.0,-152.0,303.0,919.0
-36.0,-78.0,154.0,133.0,-4000.0,433.0,-247.0,801.0
-44.0,-165.0,77.0,127.0,-4000.0,945.0,-214.0,596.0
-48.0,-188.0,132.0,183.0,-4000.0,1799.0,521.0,153.0
6.0,-218.0,280.0,276.0,-4000.0,2940.0,576.0,-297.0
31.0,-234.0,508.0,134.0,-4000.0,3835.0,300.0,-527.0
120.0,-166.0,174.0,-226.0,-4000.0,4000.0,-668.0,-839.0
275.0,-23.0,15.0,-247.0,-4000.0,4000.0,-2576.0,-1174.0
180.0,-7.0,-39.0,-78.0,-4000.0,4000.0,-2951.0,-1143.0
-8.0,-43.0,-354.0,-94.0,-4000.0,4000.0,-1432.0,-1078.0
-260.0,-62.0,-429.0,-49.0,-4000.0,4000.0,-363.0,-1461.0
-474.0,-69.0,-541.0,-54.0,-4000.0,4000.0,20.0,-1921.0
-549.0,-20.0,-612.0,-39.0,-4000.0,4000.0,415.0,-1790.0
-453.0,62.0,-557.0,10.0,-3701.0,4000.0,368.0,-1697.0
-225.0,68.0,-464.0,60.0,432.0,4000.0,67.0,-1404.0
-136.0,45.0,-536.0,111.0,4000.0,4000.0,52.0,-983.0
-8.0,79.0,-447.0,77.0,4000.0,4000.0,989.0,-524.0
334.0,201.0,-18.0,6.0,4000.0,4000.0,1722.0,160.0
790.0,311.0,-51.0,-34.0,4000.0,4000.0,1248.0,863.0
640.0,200.0,-892.0,-4.0,4000.0,4000.0,-7.0,1698.0
36.0,114.0,-1982.0,18.0,4000.0,4000.0,-807.0,2510.0
-404.0,99.0,-2639.0,38.0,4000.0,4000.0,-1370.0,3404.0
-544.0,156.0,-2847.0,69.0,4000.0,4000.0,-2028.0,4000.0
-314.0,217.0,-2267.0,95.0,4000.0,4000.0,-2146.0,4000.0
-160.0,142.0,-1171.0,124.0,1918.0,4000.0,-1851.0,4000.0
-32.0,101.0,-336.0,133.0,-4000.0,4000.0,-548.0,4000.0
-102.0,110.0,259.0,145.0,-4000.0,4000.0,1475.0,4000.0
-212.0,39.0,272.0,128.0,-4000.0,4000.0,4000.0,4000.0
-105.0,-12.0,-87.0,33.0,-4000.0,4000.0,4000.0,4000.0
110.0,46.0,-222.0,-31.0,-4000.0,3680.0,4000.0,4000.0
371.0,75.0,30.0,-32.0,-4000.0,2824.0,3595.0,4000.0
399.0,53.0,-163.0,84.0,-4000.0,1917.0,3021.0,4000.0
34.0,-1.0,-423.0,125.0,-4000.0,837.0,3021.0,4000.0
-35.0,55.0,-363.0,75.0,-4000.0,-252.0,3856.0,3469.0
194.0,138.0,-440.0,19.0,-4000.0,-1532.0,2944.0,3014.0
17.0,120.0,71.0,7.0,-4000.0,-3193.0,1223.0,2754.0
49.0,105.0,846.0,51.0,-4000.0,-4000.0,767.0,2677.0
-129.0,0.0,1300.0,27.0,-4000.0,-4000.0,1444.0,2575.0
-303.0,-71.0,1184.0,-22.0,-4000.0,-4000.0,1076.0,2624.0
-154.0,-52.0,958.0,-66.0,-1012.0,-4000.0,-1388.0,2901.0
-331.0,-56.0,663.0,-34.0,4000.0,-4000.0,-3654.0,3340.0
-361.0,7.0,576.0,29.0,4000.0,-4000.0,-3688.0,4000.0
-271.0,70.0,683.0,56.0,4000.0,-4000.0,-3390.0,4000.0
-12.0,41.0,728.0,9.0,4000.0,-4000.0,-3843.0,4000.0
92.0,-19.0,1133.0,-77.0,4000.0,-4000.0,-3507.0,4000.0
71.0,2.0,1444.0,-127.0,4000.0,-4000.0,-1730.0,4000.0
21.0,-18.0,1387.0,-157.0,4000.0,-4000.0,-146.0,4000.0
-43.0,-15.0,1094.0,-112.0,4000.0,-4000.0,591.0,4000.0
-38.0,-72.0,908.0,-29.0,4000.0,-4000.0,1059.0,4000.0
-116.0,-167.0,858.0,-20.0,4000.0,-4000.0,533.0,3340.0
49.0,-174.0,757.0,-84.0,4000.0,-4000.0,-298.0,2507.0
176.0,-122.0,695.0,-95.0,4000.0,-4000.0,-1206.0,1663.0
197.0,-29.0,785.0,-123.0,4000.0,-4000.0,-1962.0,1091.0
322.0,91.0,1053.0,-188.0,4000.0,-4000.0,-2009.0,620.0
399.0,204.0,1412.0,-305.0,4000.0,-4000.0,-1605.0,326.0
366.0,168.0,1868.0,-342.0,4000.0,-4000.0,-990.0,98.0
318.0,43.0,2551.0,-260.0,4000.0,-4000.0,-420.0,-169.0
187.0,-109.0,3527.0,-312.0,4000.0,-4000.0,-3.0,-457.0
104.0,-215.0,4000.0,-346.0,4000.0,-4000.0,-10.0,-915.0
17.0,-271.0,3763.0,-322.0,4000.0,-4000.0,269.0,-1250.0
-84.0,-241.0,1249.0,-250.0,4000.0,-4000.0,-424.0,-1526.0
-67.0,-174.0,589.0,-139.0,4000.0,-3600.0,-2512.0,-1856.0
-88.0,-89.0,-94.0,-52.0,4000.0,-3063.0,-3654.0,-1904.0
-86.0,-24.0,-1492.0,-18.0,4000.0,-2867.0,-4000.0,-1921.0
-94.0,17.0,-1720.0,-28.0,4000.0,-2713.0,-4000.0,-2022.0
-135.0,99.0,-1947.0,-71.0,4000.0,-2274.0,-4000.0,-1921.0
-102.0,139.0,-1911.0,-3.0,4000.0,-1550.0,-4000.0,-1526.0
-34.0,66.0,-2074.0,121.0,4000.0,-727.0,-3050.0,-1188.0
55.0,-23.0,-2189.0,129.0,4000.0,230.0,-241.0,-1135.0
118.0,63.0,-2704.0,122.0,4000.0,1626.0,702.0,-1558.0
165.0,335.0,-3368.0,88.0,4000.0,2515.0,1575.0,-2022.0
172.0,448.0,-3095.0,134.0,3859.0,2824.0,3477.0,-2049.0
82.0,304.0,-2418.0,209.0,2776.0,3330.0,4000.0,-2445.0
30.0,95.0,-1927.0,193.0,1873.0,3604.0,4000.0,-2893.0
-71.0,-444.0,-1813.0,49.0,2189.0,3810.0,2387.0,-3333.0
-114.0,-830.0,-1557.0,-39.0,4000.0,3914.0,1060.0,-3760.0
-60.0,-650.0,-1852.0,28.0,3810.0,4000.0,1259.0,-3927.0
-34.0,-749.0,-1849.0,52.0,3529.0,4000.0,1475.0,-4000.0
50.0,-858.0,-1492.0,83.0,3232.0,4000.0,1143.0,-4000.0
107.0,-684.0,-1263.0,65.0,3008.0,4000.0,470.0,-4000.0
315.0,-440.0,-596.0,35.0,2825.0,4000.0,-271.0,-4000.0
595.0,-122.0,-245.0,74.0,2581.0,4000.0,-304.0,-4000.0
569.0,31.0,107.0,60.0,1918.0,4000.0,-355.0,-3976.0
416.0,312.0,234.0,15.0,267.0,4000.0,-1332.0,-4000.0
501.0,511.0,152.0,-154.0,-350.0,4000.0,-1665.0,-4000.0
277.0,595.0,311.0,-300.0,-149.0,4000.0,-2182.0,-4000.0
-141.0,640.0,533.0,-168.0,-1915.0,4000.0,-3041.0,-4000.0
-286.0,607.0,703.0,-88.0,-3986.0,4000.0,-3326.0,-4000.0
-453.0,550.0,741.0,-76.0,-4000.0,4000.0,-4000.0,-4000.0
-515.0,329.0,781.0,-59.0,-4000.0,4000.0,-4000.0,-4000.0
-571.0,305.0,695.0,-57.0,-4000.0,4000.0,-2529.0,-4000.0
-614.0,146.0,572.0,-39.0,-4000.0,4000.0,-933.0,-4000.0
-518.0,15.0,657.0,-44.0,-4000.0,3914.0,523.0,-4000.0
-497.0,19.0,1184.0,27.0,-4000.0,3345.0,4000.0,-4000.0
-453.0,-67.0,1168.0,97.0,-4000.0,2706.0,4000.0,-4000.0
-379.0,-15.0,318.0,129.0,-1102.0,2189.0,4000.0,-4000.0
-428.0,5.0,-155.0,124.0,4000.0,1733.0,4000.0,-4000.0
-534.0,14.0,-425.0,146.0,4000.0,1214.0,4000.0,-3397.0
-427.0,15.0,-336.0,182.0,4000.0,290.0,4000.0,-2164.0
-105.0,31.0,-47.0,144.0,4000.0,-550.0,4000.0,-788.0
29.0,65.0,88.0,276.0,4000.0,-1198.0,4000.0,326.0
13.0,95.0,169.0,478.0,4000.0,-1709.0,4000.0,1468.0
120.0,69.0,121.0,280.0,4000.0,-1960.0,4000.0,2883.0
62.0,56.0,394.0,-131.0,4000.0,-2286.0,4000.0,4000.0
17.0,156.0,611.0,-198.0,4000.0,-2534.0,4000.0,4000.0
-21.0,294.0,546.0,-241.0,3215.0,-2660.0,4000.0,4000.0
-58.0,407.0,577.0,-217.0,-2953.0,-2592.0,3009.0,4000.0
-23.0,556.0,671.0,-145.0,-4000.0,-2332.0,-59.0,4000.0
-62.0,601.0,663.0,-239.0,-4000.0,-2142.0,-197.0,4000.0
-25.0,189.0,719.0,-193.0,-4000.0,-1951.0,-867.0,4000.0
12.0,-273.0,611.0,-241.0,-4000.0,-1753.0,-2483.0,4000.0
56.0,-575.0,663.0,-263.0,-4000.0,-1586.0,-2734.0,4000.0
32.0,-881.0,801.0,-234.0,-4000.0,-1446.0,-3520.0,4000.0
49.0,-960.0,598.0,-251.0,-4000.0,-1248.0,-3727.0,4000.0
110.0,-901.0,480.0,-133.0,-4000.0,-971.0,-3752.0,3766.0
135.0,-757.0,379.0,-3.0,-4000.0,-615.0,-4000.0,3014.0
122.0,-393.0,299.0,44.0,-4000.0,-273.0,-4000.0,2029.0
120.0,-148.0,98.0,137.0,-4000.0,93.0,-4000.0,1142.0
183.0,-38.0,-133.0,174.0,-4000.0,498.0,-4000.0,249.0
255.0,-42.0,-163.0,139.0,-4000.0,1009.0,-4000.0,-496.0
412.0,105.0,-154.0,166.0,-4000.0,1592.0,-4000.0,-1104.0
342.0,251.0,-73.0,115.0,-4000.0,2112.0,-4000.0,-1508.0
186.0,176.0,28.0,93.0,-4000.0,2580.0,-4000.0,-1644.0
192.0,235.0,81.0,179.0,-4000.0,3018.0,-4000.0,-1746.0
100.0,155.0,60.0,195.0,-4000.0,3345.0,-4000.0,-1655.0
-80.0,111.0,-30.0,175.0,-225.0,3474.0,-4000.0,-1644.0
-162.0,63.0,-192.0,118.0,4000.0,3398.0,-3507.0,-1859.0
-155.0,22.0,-132.0,81.0,4000.0,3138.0,-2740.0,-2147.0
-147.0,69.0,-107.0,42.0,4000.0,2680.0,-2976.0,-2193.0
-105.0,105.0,-205.0,-1.0,4000.0,2034.0,-3013.0,-2406.0
-82.0,144.0,-154.0,74.0,4000.0,1313.0,-2353.0,-2567.0
-75.0,112.0,-79.0,24.0,4000.0,693.0,-2064.0,-2215.0
-78.0,116.0,51.0,1.0,4000.0,144.0,-1881.0,-2151.0
-152.0,112.0,60.0,-5.0,2630.0,-550.0,-1206.0,-2302.0
-108.0,122.0,24.0,-103.0,-3107.0,-1196.0,-1266.0,-2344.0
20.0,98.0,142.0,-74.0,-2650.0,-1727.0,-1291.0,-2491.0
-2.0,108.0,246.0,-12.0,1279.0,-2284.0,-1197.0,-2735.0
21.0,84.0,148.0,-16.0,4000.0,-2725.0,-933.0,-3203.0
34.0,30.0,50.0,-84.0,4000.0,-3063.0,-1511.0,-3588.0
1.0,29.0,-17.0,-78.0,4000.0,-3387.0,-1950.0,-3462.0
61.0,25.0,24.0,-4.0,4000.0,-3535.0,-1368.0,-3333.0
67.0,41.0,-23.0,-1.0,4000.0,-3535.0,-906.0,-3007.0
80.0,26.0,-94.0,-23.0,4000.0,-3453.0,-217.0,-2476.0
108.0,37.0,-52.0,-62.0,4000.0,-3144.0,684.0,-1970.0
89.0,37.0,-68.0,6.0,4000.0,-2689.0,2684.0,-1050.0
80.0,55.0,-49.0,9.0,4000.0,-2235.0,4000.0,-389.0
72.0,93.0,-46.0,-6.0,2813.0,-1896.0,4000.0,-232.0
42.0,40.0,-24.0,18.0,3476.0,-1582.0,4000.0,165.0
31.0,27.0,-39.0,-30.0,3020.0,-1265.0,4000.0,369.0
31.0,56.0,-6.0,-28.0,2776.0,-1118.0,2357.0,361.0
20.0,103.0,46.0,32.0,1466.0,-1075.0,-130.0,417.0
21.0,70.0,24.0,75.0,190.0,-1168.0,-1533.0,503.0
-7.0,4.0,-46.0,120.0,-856.0,-1265.0,-1702.0,825.0
-14.0,48.0,-60.0,77.0,-2676.0,-1373.0,-941.0,1242.0
-8.0,111.0,-98.0,-24.0,-3803.0,-1245.0,-284.0,1533.0
8.0,187.0,-157.0,-54.0,-4000.0,-932.0,-308.0,1639.0
11.0,175.0,-85.0,-128.0,-4000.0,-645.0,-573.0,1638.0
-4.0,-3.0,-78.0,-155.0,-4000.0,-419.0,-155.0,1598.0
8.0,-65.0,-40.0,-147.0,-4000.0,-436.0,-112.0,1621.0
16.0,-48.0,-34.0,-239.0,-4000.0,-468.0,-536.0,1651.0
25.0,-88.0,-60.0,-263.0,-4000.0,-247.0,-548.0,1688.0
23.0,-58.0,-64.0,-202.0,-4000.0,138.0,-420.0,1704.0
18.0,-97.0,-143.0,-111.0,-4000.0,615.0,-155.0,1621.0
43.0,-192.0,-175.0,31.0,-4000.0,1098.0,13.0,1638.0
49.0,-234.0,-145.0,-49.0,-4000.0,1655.0,-51.0,1663.0
12.0,-224.0,-160.0,-200.0,-4000.0,2254.0,-86.0,1727.0
8.0,-176.0,-179.0,-226.0,-4000.0,2953.0,-6.0,1859.0
3.0,-125.0,-165.0,-256.0,-4000.0,3655.0,41.0,2248.0
6.0,-72.0,-110.0,-189.0,-4000.0,4000.0,-117.0,2819.0
11.0,-12.0,-72.0,-185.0,-4000.0,4000.0,-298.0,3144.0
21.0,43.0,-31.0,-289.0,-4000.0,4000.0,-412.0,3393.0
14.0,36.0,187.0,-301.0,-4000.0,4000.0,-583.0,3588.0
-41.0,-8.0,385.0,-143.0,-4000.0,4000.0,-337.0,3877.0
-16.0,33.0,332.0,-49.0,-4000.0,4000.0,1.0,4000.0
10.0,305.0,105.0,-38.0,-4000.0,4000.0,-30.0,4000.0
18.0,652.0,16.0,18.0,-4000.0,4000.0,-192.0,4000.0
-12.0,615.0,2.0,66.0,-4000.0,4000.0,-98.0,4000.0
-43.0,222.0,-107.0,55.0,-4000.0,3875.0,97.0,4000.0
-44.0,-264.0,-188.0,45.0,-3315.0,3528.0,5.0,4000.0
-63.0,-495.0,-270.0,55.0,-2338.0,3101.0,-154.0,3458.0
-110.0,-479.0,-320.0,87.0,-1114.0,2645.0,131.0,2835.0
-104.0,-492.0,-318.0,134.0,237.0,2255.0,276.0,2416.0
-62.0,-548.0,-244.0,133.0,944.0,1799.0,91.0,1859.0
-33.0,-483.0,-99.0,182.0,1482.0,1395.0,445.0,1053.0
-1.0,34.0,39.0,179.0,2124.0,902.0,818.0,751.0
78.0,477.0,56.0,149.0,2630.0,455.0,954.0,849.0
82.0,347.0,8.0,81.0,3281.0,34.0,1007.0,564.0
43.0,118.0,27.0,22.0,3877.0,-397.0,962.0,259.0
-24.0,-50.0,-105.0,22.0,4000.0,-917.0,1183.0,304.0
-83.0,-175.0,-224.0,-30.0,4000.0,-1461.0,1314.0,606.0
-74.0,-253.0,-245.0,-63.0,4000.0,-1960.0,1345.0,700.0
-155.0,-438.0,-320.0,-50.0,4000.0,-2300.0,1483.0,634.0
-177.0,-354.0,-299.0,33.0,4000.0,-2504.0,1528.0,397.0
-134.0,-143.0,-307.0,25.0,4000.0,-2648.0,1540.0,322.0
-45.0,-127.0,-222.0,-67.0,4000.0,-2803.0,1722.0,548.0
23.0,-40.0,89.0,-48.0,4000.0,-2725.0,1825.0,499.0
-31.0,132.0,360.0,7.0,4000.0,-2315.0,1967.0,438.0
-31.0,215.0,299.0,-127.0,4000.0,-1915.0,2048.0,283.0
-50.0,116.0,89.0,-282.0,4000.0,-1623.0,2179.0,100.0
-2.0,82.0,39.0,-245.0,4000.0,-1237.0,2444.0,-116.0
65.0,106.0,-57.0,-101.0,4000.0,-680.0,2826.0,-382.0
25.0,117.0,-158.0,-45.0,3599.0,-195.0,3624.0,-618.0
-1.0,91.0,-106.0,23.0,2760.0,300.0,4000.0,-919.0
-24.0,12.0,-129.0,138.0,2255.0,805.0,4000.0,-1187.0
-15.0,41.0,-115.0,189.0,2113.0,1279.0,4000.0,-1515.0
-30.0,241.0,-42.0,217.0,1958.0,1787.0,4000.0,-1859.0
-58.0,549.0,-40.0,276.0,1604.0,2295.0,-1488.0,-2283.0
-32.0,640.0,-25.0,210.0,2255.0,2840.0,-4000.0,-2651.0
-50.0,309.0,-35.0,-86.0,2955.0,3231.0,-4000.0,-2893.0
-43.0,21.0,-32.0,-184.0,2825.0,3463.0,-4000.0,-3113.0
-70.0,-142.0,10.0,-61.0,3399.0,3655.0,-4000.0,-3268.0
-67.0,-214.0,52.0,31.0,3476.0,3857.0,-4000.0,-3414.0
-88.0,-219.0,53.0,67.0,3399.0,4000.0,-4000.0,-3414.0
-116.0,-237.0,112.0,37.0,4000.0,4000.0,-4000.0,-3333.0
-22.0,-198.0,158.0,98.0,4000.0,3914.0,-4000.0,-3280.0
20.0,-85.0,134.0,171.0,4000.0,3786.0,-3562.0,-3268.0
27.0,91.0,107.0,220.0,4000.0,3678.0,-3261.0,-3219.0
14.0,213.0,31.0,244.0,4000.0,3491.0,-3520.0,-3073.0
27.0,355.0,-15.0,76.0,4000.0,3214.0,-2107.0,-2941.0
55.0,381.0,-59.0,87.0,4000.0,2953.0,-611.0,-2828.0
30.0,197.0,-17.0,189.0,4000.0,2645.0,-294.0,-2747.0
80.0,114.0,54.0,92.0,4000.0,2373.0,867.0,-2747.0
60.0,9.0,128.0,55.0,4000.0,2060.0,1418.0,-2747.0
0.0,4.0,142.0,56.0,4000.0,1710.0,2061.0,-2747.0
34.0,9.0,112.0,72.0,4000.0,1352.0,2777.0,-2722.0
32.0,-129.0,179.0,-5.0,4000.0,1148.0,3103.0,-2667.0
20.0,-200.0,299.0,-61.0,4000.0,967.0,3745.0,-2605.0
2.0,-347.0,408.0,-61.0,4000.0,867.0,3990.0,-2584.0
31.0,-505.0,385.0,-116.0,4000.0,693.0,4000.0,-2629.0
65.0,-440.0,373.0,-126.0,4000.0,522.0,4000.0,-2682.0
93.0,-214.0,280.0,-154.0,4000.0,412.0,3838.0,-2759.0
101.0,-179.0,179.0,-188.0,4000.0,271.0,3151.0,-2759.0
37.0,-196.0,130.0,-165.0,4000.0,150.0,2190.0,-2694.0
33.0,-25.0,81.0,-140.0,4000.0,-237.0,1801.0,-2537.0
10.0,58.0,132.0,-111.0,4000.0,-620.0,1444.0,-2280.0
-26.0,135.0,88.0,-104.0,4000.0,-1053.0,954.0,-1998.0
-55.0,251.0,15.0,-146.0,4000.0,-1623.0,468.0,-1725.0
-73.0,248.0,-32.0,-169.0,4000.0,-2063.0,227.0,-1448.0
-69.0,263.0,-85.0,-191.0,4000.0,-2595.0,138.0,-1257.0
-66.0,125.0,-95.0,-212.0,4000.0,-2949.0,7.0,-1078.0
-39.0,27.0,-119.0,-263.0,4000.0,-3193.0,-108.0,-789.0
-51.0,24.0,-147.0,-220.0,4000.0,-3439.0,-493.0,-427.0
-50.0,22.0,-162.0,-86.0,2907.0,-3572.0,-1258.0,-126.0
-10.0,43.0,-179.0,-39.0,1352.0,-3763.0,-1718.0,114.0
-11.0,-32.0,-190.0,132.0,-258.0,-3832.0,-1136.0,365.0
-16.0,23.0,-190.0,258.0,-1951.0,-3894.0,-637.0,550.0
-31.0,41.0,-180.0,255.0,-3639.0,-3910.0,-905.0,882.0
-5.0,82.0,-155.0,230.0,-4000.0,-3913.0,-1500.0,1026.0
-5.0,197.0,-165.0,226.0,-4000.0,-3852.0,-1258.0,1108.0
-32.0,229.0,-144.0,258.0,-4000.0,-3659.0,-527.0,1272.0
-25.0,203.0,-129.0,174.0,-4000.0,-3600.0,-485.0,1281.0
-31.0,138.0,-129.0,8.0,-4000.0,-3624.0,-485.0,1324.0
-30.0,156.0,-108.0,-389.0,-4000.0,-3651.0,-180.0,1338.0
-44.0,120.0,-108.0,-784.0,-4000.0,-3639.0,50.0,1462.0
-38.0,77.0,-93.0,-719.0,-4000.0,-3659.0,-42.0,1533.0
-60.0,29.0,-81.0,-409.0,-4000.0,-3639.0,-363.0,1598.0
-59.0,51.0,-31.0,-74.0,-4000.0,-3600.0,-375.0,1650.0
-33.0,2.0,11.0,194.0,-4000.0,-3571.0,-408.0,1633.0
-31.0,-183.0,-20.0,260.0,-4000.0,-3387.0,-643.0,1651.0
-24.0,-214.0,-46.0,244.0,-4000.0,-3258.0,-664.0,1623.0
-54.0,-247.0,-59.0,236.0,-4000.0,-3075.0,-745.0,1663.0
-55.0,-282.0,-56.0,245.0,-4000.0,-2932.0,-745.0,1663.0
-48.0,-280.0,-46.0,238.0,-4000.0,-2685.0,-924.0,1728.0
-17.0,-236.0,-13.0,178.0,-4000.0,-2510.0,-640.0,1762.0
0.0,-210.0,-6.0,116.0,-4000.0,-2547.0,207.0,1663.0
5.0,-154.0,-33.0,69.0,-4000.0,-2451.0,734.0,1651.0
12.0,-28.0,-27.0,92.0,-4000.0,-2274.0,668.0,1633.0
6.0,44.0,-32.0,29.0,-4000.0,-2185.0,-122.0,1651.0
10.0,102.0,-9.0,-18.0,-4000.0,-2079.0,-1096.0,1698.0
4.0,252.0,10.0,15.0,-4000.0,-1782.0,-1583.0,1716.0
25.0,346.0,40.0,22.0,-4000.0,-1532.0,-1801.0,1716.0
34.0,150.0,53.0,146.0,-4000.0,-1270.0,-2028.0,1663.0
21.0,-12.0,35.0,382.0,-4000.0,-1010.0,-1438.0,1649.0
5.0,-65.0,49.0,422.0,-4000.0,-875.0,-998.0,1598.0
16.0,-120.0,52.0,-6.0,-4000.0,-867.0,-1425.0,1598.0
25.0,-139.0,48.0,-188.0,-4000.0,-816.0,-1848.0,1651.0
21.0,-130.0,73.0,-247.0,-4000.0,-716.0,-1462.0,1698.0
25.0,-85.0,30.0,-297.0,-4000.0,-846.0,-802.0,1704.0
27.0,-59.0,15.0,-130.0,-4000.0,-678.0,-253.0,1704.0
36.0,-56.0,40.0,-224.0,-4000.0,-371.0,-182.0,1623.0
7.0,-36.0,-17.0,-195.0,-4000.0,-154.0,-876.0,1541.0
-13.0,-3.0,-40.0,-149.0,-4000.0,185.0,-1716.0,1512.0
-4.0,-54.0,-26.0,-38.0,-4000.0,315.0,-2675.0,1372.0
17.0,26.0,14.0,72.0,-4000.0,441.0,-3082.0,1259.0
17.0,238.0,33.0,-91.0,-4000.0,520.0,-3000.0,1091.0
27.0,45.0,23.0,-147.0,-2688.0,491.0,-2288.0,947.0
15.0,-151.0,17.0,-143.0,-673.0,278.0,-1767.0,890.0
-1.0,176.0,-1.0,-158.0,2825.0,-33.0,-1600.0,798.0
1.0,215.0,9.0,-216.0,4000.0,138.0,-817.0,751.0
-16.0,-50.0,11.0,-252.0,4000.0,321.0,-350.0,725.0
-19.0,-300.0,-10.0,-129.0,4000.0,619.0,-196.0,686.0
-33.0,-411.0,-43.0,-32.0,4000.0,811.0,-464.0,686.0
2.0,-118.0,-41.0,-36.0,4000.0,888.0,-685.0,547.0
9.0,29.0,-27.0,-59.0,4000.0,967.0,-769.0,426.0
-3.0,227.0,-29.0,11.0,4000.0,888.0,-664.0,336.0
-14.0,420.0,-14.0,189.0,4000.0,1033.0,-477.0,255.0
-8.0,409.0,-42.0,250.0,4000.0,1292.0,-397.0,144.0
-4.0,347.0,-30.0,190.0,4000.0,1601.0,-167.0,32.0
-9.0,371.0,-17.0,162.0,4000.0,1775.0,45.0,-20.0
-21.0,550.0,-27.0,172.0,4000.0,1666.0,368.0,-76.0
-40.0,615.0,-3.0,107.0,4000.0,1379.0,529.0,-130.0
-8.0,424.0,2.0,49.0,4000.0,1279.0,637.0,-217.0
4.0,203.0,18.0,34.0,4000.0,1325.0,352.0,-301.0
24.0,120.0,18.0,26.0,4000.0,1266.0,70.0,-386.0
7.0,-65.0,-16.0,-19.0,4000.0,1409.0,202.0,-454.0
-5.0,-163.0,-8.0,-59.0,4000.0,1604.0,492.0,-464.0
0.0,-206.0,-17.0,-56.0,4000.0,1669.0,802.0,-457.0
-39.0,-375.0,-42.0,-79.0,4000.0,1787.0,749.0,-449.0
-14.0,-566.0,-54.0,-75.0,4000.0,1769.0,772.0,-449.0
25.0,-631.0,-82.0,-67.0,4000.0,1704.0,889.0,-459.0
21.0,-488.0,-71.0,-37.0,4000.0,1710.0,805.0,-476.0
-2.0,-330.0,-37.0,-5.0,4000.0,1734.0,858.0,-435.0
-3.0,-244.0,-19.0,4.0,4000.0,1854.0,1013.0,-398.0
-16.0,-179.0,-48.0,-22.0,4000.0,1958.0,954.0,-353.0
-39.0,-158.0,-88.0,-93.0,4000.0,1966.0,824.0,-293.0
-6.0,-130.0,-90.0,-74.0,4000.0,1864.0,470.0,-262.0
33.0,-29.0,-64.0,-33.0,3008.0,1864.0,376.0,-290.0
2.0,-1.0,-38.0,-52.0,1796.0,1917.0,812.0,-291.0
-21.0,33.0,-46.0,-39.0,994.0,2099.0,954.0,-276.0
-23.0,110.0,-139.0,-45.0,-315.0,2254.0,962.0,-260.0
-55.0,129.0,-161.0,-65.0,-1918.0,2190.0,1052.0,-166.0
-29.0,146.0,-101.0,-33.0,-3456.0,2019.0,1115.0,-135.0
-45.0,94.0,15.0,-21.0,-4000.0,1864.0,1143.0,-97.0
-44.0,77.0,153.0,-49.0,-4000.0,1775.0,1046.0,-31.0
-13.0,182.0,134.0,-66.0,-3689.0,1655.0,759.0,50.0
-8.0,241.0,205.0,-76.0,-3661.0,1733.0,431.0,33.0
9.0,223.0,317.0,-72.0,-3655.0,1443.0,416.0,-89.0
-3.0,163.0,341.0,-87.0,-3973.0,1077.0,628.0,-162.0
-4.0,40.0,228.0,-151.0,-4000.0,987.0,691.0,-273.0
-34.0,52.0,125.0,-154.0,-4000.0,870.0,732.0,-301.0
-29.0,113.0,107.0,-92.0,-4000.0,831.0,759.0,-327.0
-30.0,-21.0,55.0,-1.0,-4000.0,411.0,603.0,-410.0
-56.0,-159.0,44.0,11.0,-4000.0,-411.0,439.0,-496.0
-65.0,-176.0,-61.0,9.0,-4000.0,-672.0,427.0,-562.0
-21.0,-253.0,-90.0,-25.0,-4000.0,-109.0,554.0,-589.0
13.0,-334.0,-145.0,-48.0,-4000.0,321.0,587.0,-671.0
-17.0,-182.0,-151.0,-9.0,-4000.0,206.0,497.0,-721.0
-9.0,-109.0,-132.0,-51.0,-4000.0,-403.0,206.0,-789.0
-20.0,-157.0,-197.0,-57.0,-4000.0,-1245.0,-152.0,-844.0
11.0,-244.0,-110.0,-10.0,-4000.0,-1847.0,-220.0,-954.0
-25.0,-265.0,-72.0,15.0,-4000.0,-2091.0,-32.0,-1058.0
-23.0,-175.0,-35.0,13.0,-3639.0,-2293.0,380.0,-1018.0
5.0,-78.0,15.0,15.0,-1072.0,-2091.0,791.0,-1129.0
-1.0,25.0,39.0,72.0,758.0,-1330.0,897.0,-1245.0
15.0,95.0,60.0,80.0,2243.0,-1422.0,693.0,-1324.0
-20.0,205.0,42.0,51.0,3916.0,-1831.0,455.0,-1324.0
-11.0,199.0,34.0,51.0,4000.0,-1814.0,449.0,-1298.0
-1.0,227.0,-54.0,-2.0,4000.0,-1599.0,603.0,-1325.0
4.0,239.0,-66.0,12.0,4000.0,-1198.0,734.0,-1279.0
-3.0,261.0,-68.0,-3.0,4000.0,-932.0,685.0,-1194.0
4.0,282.0,-82.0,-46.0,4000.0,-668.0,510.0,-1143.0
-10.0,170.0,-77.0,-19.0,4000.0,-548.0,470.0,-1135.0
-10.0,134.0,-108.0,-4.0,4000.0,-844.0,877.0,-1170.0
-2.0,53.0,-67.0,37.0,4000.0,-1140.0,1149.0,-1170.0
-7.0,41.0,-30.0,41.0,4000.0,-1070.0,1064.0,-1143.0
-19.0,50.0,14.0,62.0,4000.0,-875.0,838.0,-1005.0
-13.0,49.0,16.0,81.0,4000.0,-650.0,429.0,-659.0
21.0,72.0,-20.0,157.0,945.0,-541.0,20.0,-305.0
24.0,28.0,-1.0,221.0,-4000.0,-565.0,-271.0,172.0
5.0,17.0,-57.0,110.0,-4000.0,-546.0,-371.0,444.0
-16.0,-1.0,-99.0,-6.0,-4000.0,-574.0,-290.0,817.0
-20.0,-24.0,-72.0,-24.0,-4000.0,-498.0,-76.0,1309.0
-43.0,-34.0,-59.0,-33.0,-4000.0,-394.0,178.0,1403.0
-65.0,-24.0,-63.0,-66.0,-4000.0,-259.0,339.0,1533.0
-51.0,-37.0,-44.0,-69.0,-4000.0,-93.0,374.0,1663.0
-75.0,-56.0,-38.0,-38.0,-4000.0,81.0,144.0,1663.0
-89.0,-81.0,-54.0,-36.0,-4000.0,271.0,-118.0,1411.0
-53.0,-95.0,-45.0,-48.0,-4000.0,376.0,-465.0,1183.0
-14.0,-64.0,-7.0,-29.0,-4000.0,250.0,-716.0,1077.0
51.0,-67.0,11.0,7.0,-4000.0,248.0,-316.0,1053.0
155.0,-49.0,42.0,-21.0,-4000.0,355.0,416.0,961.0
273.0,-43.0,76.0,-23.0,-4000.0,366.0,858.0,869.0
248.0,-45.0,47.0,1.0,-4000.0,615.0,730.0,947.0
114.0,-28.0,-14.0,6.0,-4000.0,926.0,-26.0,978.0
