-116.0,-39.0,69.0,99.0,4000.0,-1961.0,45.0,426.0
-132.0,-53.0,-18.0,-184.0,4000.0,-1961.0,860.0,276.0
-93.0,-57.0,-90.0,-654.0,4000.0,-531.0,1526.0,210.0
-29.0,-22.0,-133.0,-511.0,4000.0,31.0,2166.0,105.0
-83.0,-30.0,-155.0,-446.0,4000.0,354.0,2761.0,107.0
-90.0,-10.0,-163.0,69.0,4000.0,1157.0,3400.0,125.0
-19.0,-10.0,-183.0,400.0,4000.0,1124.0,4000.0,140.0
56.0,-21.0,-210.0,199.0,4000.0,1092.0,4000.0,290.0
79.0,-14.0,-180.0,83.0,4000.0,1482.0,4000.0,396.0
10.0,-26.0,-203.0,-55.0,4000.0,1248.0,4000.0,564.0
-79.0,-43.0,-129.0,56.0,4000.0,837.0,4000.0,615.0
-101.0,-102.0,-42.0,45.0,4000.0,554.0,4000.0,760.0
-73.0,-179.0,10.0,19.0,4000.0,-255.0,4000.0,760.0
-123.0,-176.0,136.0,99.0,4000.0,-802.0,4000.0,597.0
-52.0,-78.0,104.0,189.0,4000.0,-529.0,4000.0,396.0
40.0,24.0,138.0,500.0,4000.0,-9.0,4000.0,303.0
77.0,85.0,215.0,512.0,4000.0,134.0,4000.0,413.0
127.0,95.0,279.0,67.0,4000.0,145.0,4000.0,483.0
155.0,105.0,306.0,-391.0,4000.0,857.0,4000.0,535.0
169.0,122.0,145.0,-397.0,3202.0,2254.0,4000.0,569.0
119.0,74.0,14.0,-212.0,-182.0,3725.0,3917.0,522.0
0.0,67.0,-153.0,-30.0,-2986.0,4000.0,3748.0,384.0
-116.0,41.0,-292.0,-195.0,-4000.0,4000.0,3734.0,360.0
-258.0,-15.0,-393.0,-1109.0,-4000.0,4000.0,3903.0,141.0
-376.0,-63.0,-315.0,-936.0,-4000.0,4000.0,4000.0,-73.0
-223.0,-47.0,-119.0,30.0,-4000.0,4000.0,3905.0,-81.0
62.0,10.0,-149.0,309.0,-4000.0,4000.0,3789.0,-85.0
214.0,31.0,-57.0,980.0,-4000.0,4000.0,3860.0,201.0
198.0,66.0,-28.0,1287.0,-4000.0,4000.0,3903.0,213.0
214.0,54.0,-106.0,849.0,-4000.0,4000.0,3661.0,359.0
573.0,55.0,-29.0,622.0,-4000.0,3166.0,3217.0,634.0
994.0,70.0,-33.0,297.0,-4000.0,2418.0,2879.0,330.0
656.0,77.0,55.0,-18.0,-4000.0,1214.0,2582.0,53.0
110.0,86.0,150.0,-92.0,-4000.0,764.0,2579.0,-293.0
121.0,66.0,492.0,-25.0,-4000.0,2809.0,2944.0,-410.0
50.0,52.0,1497.0,-96.0,-4000.0,4000.0,3282.0,-540.0
-238.0,22.0,1822.0,-147.0,-4000.0,-192.0,3347.0,-540.0
37.0,-3.0,611.0,-60.0,-4000.0,-2209.0,3205.0,-990.0
905.0,-16.0,-817.0,-36.0,-4000.0,4000.0,2908.0,-1279.0
719.0,4.0,-1694.0,-39.0,-4000.0,4000.0,2570.0,-622.0
214.0,57.0,-1630.0,-21.0,-2387.0,4000.0,2514.0,-818.0
4.0,82.0,-971.0,-67.0,-222.0,4000.0,2579.0,-908.0
-675.0,77.0,-532.0,-116.0,4000.0,1329.0,2449.0,-1126.0
-1240.0,46.0,-52.0,-45.0,4000.0,2060.0,2126.0,-1384.0
-1524.0,40.0,39.0,-39.0,4000.0,3882.0,1931.0,-1801.0
-1283.0,40.0,-161.0,34.0,4000.0,4000.0,2449.0,-2415.0
-1001.0,60.0,-257.0,145.0,4000.0,4000.0,2647.0,-1985.0
-844.0,56.0,-389.0,144.0,4000.0,4000.0,2557.0,-2617.0
-1011.0,40.0,-338.0,54.0,4000.0,4000.0,2582.0,-3386.0
-740.0,81.0,54.0,-198.0,4000.0,1710.0,2582.0,-3256.0
-70.0,103.0,526.0,-527.0,4000.0,-3128.0,2814.0,-2849.0
-227.0,146.0,837.0,-711.0,4000.0,-4000.0,2773.0,-2006.0
-419.0,187.0,754.0,-458.0,4000.0,-4000.0,2684.0,-1856.0
-396.0,211.0,253.0,-291.0,4000.0,-4000.0,2384.0,-1590.0
-105.0,211.0,47.0,-191.0,4000.0,-3657.0,2048.0,-1114.0
199.0,176.0,126.0,34.0,4000.0,-3063.0,1757.0,-776.0
260.0,129.0,132.0,50.0,4000.0,-3246.0,1522.0,-517.0
386.0,111.0,253.0,125.0,4000.0,-3799.0,1288.0,-720.0
366.0,92.0,218.0,190.0,4000.0,-4000.0,986.0,-339.0
381.0,28.0,190.0,248.0,4000.0,-4000.0,802.0,312.0
406.0,19.0,195.0,362.0,4000.0,-4000.0,616.0,513.0
564.0,-10.0,157.0,313.0,4000.0,-4000.0,683.0,713.0
680.0,-29.0,122.0,238.0,4000.0,-2549.0,726.0,1334.0
1000.0,-30.0,32.0,264.0,4000.0,-620.0,576.0,1989.0
1507.0,-37.0,31.0,236.0,4000.0,983.0,439.0,2172.0
1384.0,12.0,51.0,223.0,4000.0,2190.0,246.0,1859.0
976.0,-2.0,105.0,207.0,4000.0,3018.0,256.0,2507.0
574.0,-67.0,130.0,163.0,3916.0,3296.0,291.0,3002.0
121.0,-88.0,69.0,126.0,3623.0,3101.0,132.0,2677.0
-183.0,-82.0,-23.0,-137.0,3396.0,2568.0,-446.0,2705.0
-417.0,-55.0,-31.0,-300.0,3150.0,1917.0,-1006.0,2858.0
-476.0,-48.0,35.0,-211.0,2907.0,1063.0,-1173.0,3910.0
-490.0,-46.0,73.0,-162.0,2695.0,394.0,-1054.0,4000.0
-493.0,-16.0,20.0,-182.0,2513.0,-122.0,-652.0,4000.0
-418.0,0.0,-16.0,-206.0,2124.0,-600.0,-143.0,4000.0
-453.0,-4.0,-37.0,-285.0,619.0,-1270.0,551.0,4000.0
-383.0,-20.0,-98.0,-311.0,-1898.0,-1943.0,1019.0,4000.0
-172.0,-53.0,28.0,-123.0,-4000.0,-2510.0,1118.0,3910.0
257.0,-51.0,137.0,-81.0,-4000.0,-2803.0,1119.0,3806.0
447.0,-57.0,110.0,-116.0,-4000.0,-3298.0,1248.0,2883.0
77.0,-113.0,92.0,-169.0,-4000.0,-4000.0,1931.0,2433.0
-131.0,-157.0,93.0,-145.0,-4000.0,-4000.0,2746.0,2689.0
-256.0,-157.0,130.0,-4.0,-4000.0,-4000.0,3216.0,1818.0
-244.0,-159.0,98.0,75.0,-4000.0,-4000.0,3205.0,1346.0
-170.0,-199.0,27.0,178.0,-4000.0,-4000.0,2826.0,765.0
-64.0,-229.0,46.0,170.0,-4000.0,-4000.0,2557.0,357.0
166.0,-249.0,50.0,217.0,-4000.0,-4000.0,2255.0,473.0
408.0,-228.0,-31.0,182.0,-4000.0,-4000.0,1856.0,43.0
843.0,-213.0,-87.0,74.0,-4000.0,-4000.0,1658.0,36.0
784.0,-174.0,-165.0,81.0,-4000.0,-4000.0,1866.0,-247.0
373.0,-113.0,-247.0,31.0,-4000.0,-4000.0,2114.0,-736.0
192.0,-69.0,-237.0,-12.0,-4000.0,-4000.0,2020.0,-1404.0
-24.0,-41.0,-265.0,11.0,-4000.0,-4000.0,1410.0,-685.0
-181.0,-40.0,-255.0,2.0,-4000.0,-4000.0,824.0,1334.0
-296.0,-76.0,-221.0,-123.0,-4000.0,-4000.0,576.0,2479.0
-280.0,-67.0,-291.0,-285.0,-4000.0,-4000.0,596.0,3014.0
-9.0,-5.0,-385.0,-446.0,-4000.0,-3128.0,661.0,2433.0
-64.0,8.0,-479.0,-520.0,-4000.0,2484.0,424.0,1986.0
-106.0,34.0,-258.0,-466.0,-4000.0,4000.0,44.0,1272.0
-278.0,52.0,67.0,-343.0,-4000.0,4000.0,-345.0,90.0
-681.0,108.0,85.0,-263.0,-4000.0,4000.0,-555.0,-715.0
-672.0,124.0,110.0,-186.0,-4000.0,4000.0,-920.0,-1725.0
-807.0,135.0,187.0,-201.0,-4000.0,4000.0,-1583.0,-2556.0
-732.0,147.0,166.0,-146.0,-4000.0,4000.0,-2224.0,-3995.0
-614.0,131.0,244.0,210.0,-4000.0,4000.0,-2337.0,-4000.0
-537.0,160.0,345.0,358.0,-4000.0,4000.0,-2302.0,-4000.0
-331.0,138.0,237.0,282.0,-4000.0,4000.0,-2512.0,-4000.0
-136.0,108.0,107.0,221.0,-3474.0,4000.0,-2691.0,-4000.0
-16.0,80.0,85.0,244.0,-3066.0,-565.0,-3053.0,-4000.0
-32.0,54.0,-95.0,75.0,-2550.0,-4000.0,-3390.0,-4000.0
186.0,75.0,-315.0,-123.0,-2650.0,-4000.0,-3843.0,-4000.0
275.0,90.0,-198.0,-47.0,-2800.0,-4000.0,-4000.0,-4000.0
334.0,117.0,51.0,-20.0,-1963.0,-4000.0,-4000.0,-4000.0
394.0,132.0,152.0,-17.0,-856.0,-4000.0,-4000.0,-4000.0
544.0,81.0,271.0,155.0,612.0,-4000.0,-4000.0,-4000.0
929.0,34.0,-6.0,255.0,2425.0,-4000.0,-4000.0,-4000.0
1012.0,6.0,-402.0,81.0,4000.0,-4000.0,-4000.0,-4000.0
1150.0,-41.0,-442.0,-66.0,4000.0,-4000.0,-4000.0,-4000.0
1885.0,-57.0,-415.0,-68.0,4000.0,-4000.0,-3053.0,-4000.0
2080.0,21.0,-324.0,-112.0,3707.0,-4000.0,-1767.0,-3759.0
1214.0,94.0,211.0,-164.0,3623.0,-3600.0,-657.0,-2193.0
188.0,95.0,576.0,-39.0,4000.0,-2089.0,238.0,-883.0
-1110.0,15.0,-21.0,12.0,2907.0,-350.0,934.0,397.0
-1735.0,13.0,-379.0,0.0,-160.0,1279.0,2125.0,1411.0
-1764.0,70.0,-425.0,45.0,-2065.0,2580.0,3021.0,2302.0
-1524.0,36.0,-237.0,32.0,-2224.0,3083.0,3298.0,3000.0
-1105.0,46.0,68.0,65.0,-2729.0,3005.0,3795.0,3422.0
-850.0,77.0,199.0,130.0,-3367.0,3148.0,3858.0,3796.0
-515.0,66.0,335.0,280.0,-3315.0,3666.0,3429.0,4000.0
-427.0,55.0,142.0,301.0,-4000.0,4000.0,2761.0,4000.0
368.0,-12.0,284.0,236.0,-4000.0,4000.0,2440.0,4000.0
1376.0,-108.0,474.0,187.0,-4000.0,4000.0,2086.0,4000.0
1166.0,-66.0,498.0,110.0,-4000.0,4000.0,1418.0,4000.0
334.0,29.0,427.0,28.0,-4000.0,4000.0,1149.0,4000.0
-372.0,69.0,630.0,-10.0,-1207.0,4000.0,832.0,4000.0
-895.0,67.0,1094.0,118.0,4000.0,4000.0,1078.0,4000.0
-936.0,24.0,996.0,179.0,4000.0,4000.0,1760.0,4000.0
-1235.0,19.0,1249.0,229.0,4000.0,4000.0,1760.0,4000.0
-1365.0,26.0,2094.0,198.0,4000.0,4000.0,1605.0,4000.0
-676.0,125.0,1726.0,47.0,4000.0,4000.0,1825.0,4000.0
-86.0,187.0,47.0,-96.0,4000.0,4000.0,1854.0,4000.0
1345.0,135.0,-1171.0,-328.0,4000.0,4000.0,2096.0,4000.0
2471.0,117.0,-1478.0,-437.0,4000.0,4000.0,2322.0,4000.0
1110.0,86.0,-1152.0,-433.0,4000.0,4000.0,2191.0,4000.0
-565.0,18.0,-538.0,-431.0,4000.0,4000.0,2061.0,4000.0
-1175.0,-30.0,165.0,-381.0,4000.0,4000.0,2125.0,4000.0
-909.0,-76.0,183.0,-336.0,4000.0,4000.0,2321.0,3651.0
382.0,-152.0,441.0,-155.0,4000.0,4000.0,1735.0,3261.0
827.0,-142.0,459.0,-74.0,4000.0,1533.0,510.0,2883.0
-348.0,-64.0,-230.0,-125.0,4000.0,-2293.0,-729.0,2640.0
-1202.0,24.0,-231.0,-102.0,4000.0,-4000.0,-1618.0,2479.0
-1402.0,41.0,-812.0,-48.0,4000.0,-4000.0,-2388.0,2377.0
-1084.0,-15.0,-1618.0,-68.0,3916.0,-4000.0,-2951.0,2249.0
-368.0,-208.0,-1655.0,42.0,-4000.0,-4000.0,-3065.0,1986.0
412.0,-318.0,-1078.0,272.0,-4000.0,-4000.0,-3119.0,1651.0
1299.0,-74.0,-709.0,320.0,-4000.0,-4000.0,-3981.0,1521.0
2523.0,338.0,-963.0,251.0,-4000.0,-4000.0,-4000.0,1437.0
2777.0,412.0,-1862.0,116.0,-4000.0,-4000.0,-3520.0,1085.0
1246.0,217.0,-2039.0,-29.0,-4000.0,-4000.0,-2709.0,825.0
-365.0,140.0,-1695.0,-200.0,-4000.0,-4000.0,-2481.0,541.0
-1298.0,-12.0,-502.0,-143.0,-4000.0,-4000.0,-3000.0,-124.0
-870.0,-132.0,1257.0,-9.0,-4000.0,-4000.0,-3338.0,-934.0
-1011.0,-295.0,1770.0,124.0,-4000.0,-4000.0,-3627.0,-1658.0
-1283.0,-391.0,1597.0,104.0,4000.0,-4000.0,-4000.0,-2617.0
-915.0,-399.0,349.0,-198.0,4000.0,-4000.0,-4000.0,-3593.0
-915.0,-383.0,439.0,-230.0,4000.0,-4000.0,-4000.0,-4000.0
-449.0,-300.0,1550.0,-155.0,4000.0,-3600.0,-4000.0,-4000.0
-50.0,-224.0,2266.0,-102.0,4000.0,-2905.0,-4000.0,-4000.0
436.0,-135.0,1674.0,-60.0,4000.0,-2738.0,-4000.0,-4000.0
1166.0,9.0,-71.0,36.0,4000.0,-2689.0,-4000.0,-4000.0
1820.0,251.0,-948.0,185.0,4000.0,-2469.0,-3700.0,-4000.0
911.0,286.0,-1288.0,199.0,4000.0,-2184.0,-3338.0,-4000.0
-457.0,238.0,-336.0,185.0,4000.0,-1831.0,-3509.0,-4000.0
-1105.0,89.0,671.0,109.0,4000.0,-1623.0,-3390.0,-3582.0
-946.0,-169.0,760.0,99.0,4000.0,-703.0,-3538.0,-2893.0
2028.0,-236.0,2213.0,174.0,4000.0,177.0,-2805.0,-2347.0
4000.0,-152.0,4000.0,64.0,4000.0,636.0,-1684.0,-1891.0
2597.0,-114.0,4000.0,-121.0,4000.0,1287.0,-1503.0,-1381.0
281.0,-47.0,-1589.0,-136.0,4000.0,1852.0,-2401.0,-1078.0
-960.0,160.0,-4000.0,-24.0,4000.0,1994.0,-2793.0,-818.0
-2593.0,386.0,-4000.0,-14.0,4000.0,1626.0,-3455.0,-620.0
-2790.0,502.0,-4000.0,99.0,1474.0,831.0,-4000.0,-401.0
-2505.0,502.0,-3080.0,142.0,-3917.0,-835.0,-4000.0,-152.0
-61.0,460.0,-2009.0,18.0,-4000.0,-3193.0,-4000.0,-312.0
2793.0,213.0,28.0,10.0,-4000.0,-4000.0,-4000.0,62.0
3302.0,147.0,1609.0,4.0,-4000.0,-4000.0,-4000.0,474.0
1189.0,38.0,3780.0,-32.0,-4000.0,-4000.0,-4000.0,817.0
-1430.0,-112.0,3185.0,-116.0,-4000.0,-4000.0,-4000.0,896.0
-1915.0,-84.0,621.0,-24.0,-4000.0,-4000.0,-4000.0,837.0
-2421.0,-288.0,-2501.0,98.0,-4000.0,-3834.0,-4000.0,1069.0
-2442.0,-440.0,-1813.0,104.0,-4000.0,-4000.0,2631.0,1221.0
-2090.0,-509.0,-214.0,87.0,-4000.0,-4000.0,4000.0,2119.0
-1475.0,-429.0,-501.0,106.0,-4000.0,-4000.0,4000.0,3328.0
-685.0,-225.0,-737.0,139.0,-4000.0,-4000.0,4000.0,4000.0
-144.0,-125.0,-2303.0,15.0,-4000.0,-4000.0,4000.0,4000.0
849.0,-114.0,-3591.0,25.0,-4000.0,-3299.0,4000.0,4000.0
2728.0,-6.0,-3795.0,-72.0,-4000.0,179.0,4000.0,4000.0
2809.0,128.0,-2698.0,-220.0,-4000.0,4000.0,4000.0,4000.0
595.0,67.0,-847.0,-94.0,-4000.0,4000.0,4000.0,4000.0
-436.0,31.0,629.0,-34.0,-4000.0,4000.0,4000.0,4000.0
-1495.0,2.0,1349.0,-157.0,-4000.0,4000.0,4000.0,4000.0
-1305.0,-139.0,1296.0,-121.0,-4000.0,4000.0,4000.0,3031.0
-193.0,-169.0,1371.0,104.0,-4000.0,4000.0,4000.0,666.0
408.0,-100.0,1609.0,56.0,-4000.0,4000.0,4000.0,-2319.0
1246.0,-24.0,1367.0,-29.0,-4000.0,4000.0,4000.0,-4000.0
2080.0,80.0,1636.0,-46.0,-4000.0,4000.0,4000.0,-4000.0
3804.0,116.0,2665.0,-74.0,-4000.0,4000.0,4000.0,-4000.0
3835.0,135.0,3983.0,42.0,-4000.0,4000.0,4000.0,-3760.0
-7.0,170.0,3983.0,75.0,4000.0,4000.0,4000.0,-1820.0
-2810.0,178.0,2616.0,-65.0,4000.0,4000.0,4000.0,474.0
-2954.0,198.0,3758.0,-74.0,4000.0,4000.0,4000.0,1272.0
-2874.0,294.0,3983.0,-75.0,4000.0,4000.0,4000.0,-608.0
-1947.0,338.0,606.0,-166.0,4000.0,4000.0,4000.0,-4000.0
-761.0,333.0,-1974.0,-38.0,4000.0,4000.0,4000.0,-4000.0
-138.0,386.0,-2607.0,-6.0,4000.0,3556.0,3734.0,-4000.0
-272.0,369.0,-1237.0,-110.0,4000.0,538.0,2908.0,-4000.0
-1105.0,258.0,-95.0,-127.0,4000.0,-2089.0,2375.0,-4000.0
-1430.0,207.0,-224.0,-50.0,4000.0,-3685.0,1993.0,-4000.0
-628.0,319.0,-25.0,-29.0,4000.0,-4000.0,1757.0,-4000.0
325.0,365.0,663.0,-84.0,4000.0,-4000.0,1510.0,-4000.0
495.0,112.0,1673.0,-28.0,4000.0,-4000.0,1605.0,-3439.0
220.0,-77.0,964.0,-94.0,4000.0,-4000.0,1532.0,4000.0
338.0,-206.0,-507.0,-151.0,4000.0,-4000.0,1454.0,4000.0
216.0,-277.0,-1629.0,-9.0,4000.0,-4000.0,1475.0,4000.0
369.0,-142.0,-2964.0,65.0,-1255.0,-4000.0,1205.0,4000.0
582.0,-128.0,-1917.0,39.0,-4000.0,-4000.0,608.0,4000.0
798.0,-224.0,858.0,100.0,-4000.0,-4000.0,-298.0,4000.0
1095.0,-244.0,1561.0,105.0,-4000.0,-4000.0,-1238.0,4000.0
595.0,-204.0,-375.0,59.0,-4000.0,-4000.0,-1990.0,4000.0
586.0,-195.0,-2253.0,88.0,-4000.0,-4000.0,-2577.0,4000.0
668.0,-220.0,-2435.0,107.0,-4000.0,-4000.0,-3106.0,4000.0
1030.0,-232.0,-2577.0,74.0,-4000.0,-4000.0,-3063.0,2835.0
760.0,-164.0,-2306.0,-28.0,-4000.0,-4000.0,-2576.0,-1142.0
-140.0,-47.0,-1681.0,-46.0,-4000.0,-4000.0,-2402.0,-4000.0
-422.0,-16.0,-971.0,-28.0,-4000.0,-4000.0,-2420.0,-4000.0
-730.0,-84.0,-585.0,-188.0,-4000.0,-4000.0,-2064.0,-4000.0
-378.0,-89.0,-717.0,-296.0,-4000.0,-4000.0,-1291.0,-4000.0
46.0,-35.0,-401.0,-212.0,-4000.0,-4000.0,-664.0,-3007.0
433.0,-20.0,-302.0,-140.0,-4000.0,-4000.0,-67.0,267.0
680.0,-22.0,-22.0,-162.0,-4000.0,-4000.0,832.0,1977.0
277.0,-106.0,110.0,-157.0,-4000.0,-2928.0,1840.0,2563.0
44.0,-133.0,492.0,-41.0,-4000.0,-2382.0,2777.0,2572.0
86.0,-196.0,957.0,74.0,-4000.0,-1422.0,3593.0,2314.0
346.0,-241.0,1765.0,63.0,-4000.0,-1135.0,4000.0,2371.0
460.0,-65.0,2811.0,-19.0,-4000.0,-1.0,4000.0,3263.0
603.0,-20.0,2460.0,-25.0,4000.0,-67.0,4000.0,4000.0
438.0,21.0,3185.0,-32.0,4000.0,-120.0,3399.0,4000.0
-283.0,62.0,3763.0,-22.0,4000.0,1148.0,1353.0,3079.0
-625.0,114.0,1627.0,-29.0,4000.0,722.0,-1254.0,-30.0
-654.0,175.0,-552.0,-29.0,4000.0,1518.0,-3922.0,-3219.0
-547.0,152.0,-2633.0,13.0,4000.0,2759.0,-4000.0,-4000.0
-310.0,150.0,-3502.0,12.0,4000.0,3296.0,-4000.0,-4000.0
-126.0,49.0,-2899.0,39.0,4000.0,3333.0,-4000.0,-4000.0
334.0,66.0,-2407.0,120.0,811.0,1929.0,-4000.0,-1839.0
660.0,8.0,-1613.0,99.0,-4000.0,1452.0,-4000.0,1663.0
265.0,-144.0,-1362.0,35.0,-4000.0,1604.0,-4000.0,4000.0
-203.0,-231.0,-814.0,171.0,-4000.0,953.0,-4000.0,4000.0
-409.0,-267.0,195.0,376.0,-4000.0,-1322.0,-4000.0,4000.0
-449.0,-247.0,217.0,209.0,-3726.0,-2079.0,-4000.0,4000.0
-327.0,-104.0,-128.0,-69.0,4000.0,232.0,-4000.0,4000.0
-307.0,25.0,30.0,-137.0,4000.0,-579.0,-4000.0,4000.0
-314.0,43.0,606.0,-182.0,4000.0,-4000.0,-4000.0,4000.0
-186.0,118.0,772.0,-49.0,4000.0,-4000.0,-4000.0,4000.0
-180.0,112.0,1283.0,-40.0,4000.0,-4000.0,-4000.0,4000.0
-201.0,87.0,1738.0,-65.0,3476.0,-4000.0,-4000.0,4000.0
-149.0,49.0,1053.0,3.0,-2995.0,-2819.0,-4000.0,4000.0
-120.0,60.0,231.0,-4.0,-4000.0,-1237.0,-4000.0,4000.0
-67.0,29.0,-375.0,-7.0,-4000.0,987.0,-4000.0,4000.0
-92.0,-18.0,-707.0,-119.0,-4000.0,576.0,-4000.0,4000.0
-64.0,41.0,-548.0,-120.0,4000.0,415.0,-4000.0,4000.0
-5.0,40.0,-428.0,-56.0,4000.0,-901.0,-3053.0,-69.0
26.0,22.0,-336.0,-21.0,4000.0,-2418.0,-2418.0,-4000.0
72.0,25.0,-139.0,93.0,4000.0,-3051.0,-1897.0,-4000.0
90.0,48.0,59.0,-35.0,4000.0,-3063.0,-1397.0,-4000.0
139.0,80.0,268.0,-397.0,4000.0,-2998.0,-1051.0,-4000.0
216.0,147.0,371.0,-513.0,4000.0,-3763.0,-598.0,-4000.0
238.0,212.0,415.0,-625.0,4000.0,-2791.0,-326.0,-4000.0
8.0,149.0,431.0,-393.0,4000.0,-2620.0,-133.0,-4000.0
-232.0,62.0,439.0,-40.0,4000.0,-2119.0,-82.0,-4000.0
-95.0,105.0,309.0,162.0,4000.0,-1396.0,262.0,-4000.0
17.0,129.0,402.0,533.0,4000.0,-2170.0,363.0,-4000.0
-10.0,99.0,455.0,548.0,4000.0,-3830.0,268.0,-4000.0
5.0,117.0,373.0,509.0,4000.0,-4000.0,349.0,-4000.0
-24.0,140.0,296.0,238.0,4000.0,-4000.0,248.0,-4000.0
-29.0,140.0,89.0,134.0,4000.0,-3061.0,402.0,-4000.0
-31.0,128.0,72.0,299.0,4000.0,-2338.0,376.0,-267.0
-4.0,101.0,39.0,244.0,4000.0,-2041.0,433.0,4000.0
27.0,78.0,42.0,204.0,4000.0,-810.0,598.0,4000.0
2.0,64.0,-16.0,-219.0,4000.0,469.0,628.0,4000.0
-44.0,91.0,-46.0,-615.0,4000.0,1991.0,871.0,4000.0
-55.0,79.0,-32.0,-677.0,4000.0,2840.0,889.0,4000.0
-74.0,26.0,-50.0,-273.0,4000.0,2824.0,661.0,4000.0
-165.0,-21.0,-49.0,603.0,4000.0,2485.0,467.0,4000.0
-245.0,67.0,-48.0,580.0,4000.0,2512.0,359.0,4000.0
-149.0,193.0,-83.0,-277.0,4000.0,2840.0,179.0,4000.0
-47.0,82.0,-178.0,-645.0,4000.0,2759.0,83.0,4000.0
3.0,-18.0,-183.0,-1012.0,4000.0,2490.0,-255.0,4000.0
29.0,-101.0,-125.0,-1077.0,4000.0,2254.0,-312.0,4000.0
21.0,-154.0,-78.0,-137.0,3916.0,1604.0,-442.0,4000.0
18.0,-154.0,-155.0,435.0,3668.0,713.0,-587.0,4000.0
17.0,-128.0,-268.0,472.0,3428.0,1157.0,-267.0,4000.0
60.0,-46.0,-255.0,858.0,3167.0,2645.0,309.0,4000.0
-3.0,-56.0,-143.0,988.0,2955.0,2759.0,702.0,4000.0
-30.0,-100.0,-160.0,819.0,-3445.0,1759.0,948.0,2689.0
-83.0,-136.0,-158.0,524.0,-4000.0,528.0,2309.0,-275.0
-142.0,-130.0,-95.0,512.0,-4000.0,-867.0,2517.0,-1856.0
-50.0,-111.0,-84.0,733.0,-4000.0,-541.0,3429.0,-953.0
-23.0,6.0,-118.0,482.0,-4000.0,673.0,4000.0,2353.0
-14.0,157.0,-216.0,-77.0,-4000.0,1733.0,4000.0,4000.0
-41.0,228.0,-166.0,-715.0,-4000.0,1227.0,4000.0,4000.0
-24.0,180.0,-129.0,-835.0,-4000.0,610.0,4000.0,4000.0
-8.0,-77.0,-152.0,-397.0,-4000.0,1452.0,4000.0,4000.0
-20.0,-248.0,-102.0,-344.0,-4000.0,2031.0,4000.0,2416.0
60.0,-414.0,-73.0,-285.0,-4000.0,2164.0,4000.0,-1606.0
59.0,-531.0,-53.0,-328.0,-4000.0,1917.0,4000.0,-2491.0
8.0,-562.0,-49.0,-458.0,-4000.0,1787.0,4000.0,-2556.0
-36.0,-601.0,-44.0,-473.0,-4000.0,1148.0,4000.0,-3734.0
-28.0,-500.0,-56.0,-498.0,-4000.0,921.0,4000.0,-4000.0
14.0,-310.0,-24.0,-326.0,-4000.0,953.0,4000.0,-4000.0
35.0,-94.0,7.0,-95.0,-4000.0,837.0,4000.0,-4000.0
42.0,120.0,-31.0,-24.0,-4000.0,823.0,4000.0,-4000.0
65.0,263.0,-50.0,-30.0,-4000.0,687.0,4000.0,-4000.0
100.0,282.0,-28.0,134.0,-4000.0,654.0,4000.0,-4000.0
60.0,384.0,-25.0,118.0,1539.0,232.0,4000.0,-4000.0
39.0,435.0,-87.0,69.0,4000.0,-98.0,4000.0,-4000.0
10.0,384.0,-61.0,77.0,4000.0,-586.0,4000.0,-4000.0
-24.0,392.0,-53.0,-6.0,4000.0,-834.0,4000.0,-4000.0
-8.0,527.0,-89.0,18.0,4000.0,-686.0,4000.0,-4000.0
2.0,672.0,-47.0,31.0,4000.0,-489.0,4000.0,-4000.0
30.0,705.0,24.0,49.0,4000.0,-82.0,2631.0,-4000.0
47.0,672.0,35.0,39.0,4000.0,-42.0,1592.0,-2959.0
73.0,290.0,-2.0,81.0,4000.0,-118.0,714.0,1129.0
43.0,-87.0,45.0,104.0,4000.0,-43.0,-313.0,4000.0
0.0,-234.0,30.0,-101.0,4000.0,478.0,-1246.0,4000.0
33.0,-402.0,45.0,-259.0,4000.0,1539.0,-2483.0,4000.0
86.0,-490.0,50.0,-169.0,4000.0,3345.0,-3507.0,4000.0
121.0,-505.0,2.0,-279.0,4000.0,4000.0,-3962.0,4000.0
143.0,-372.0,6.0,-393.0,4000.0,3539.0,-4000.0,4000.0
119.0,-328.0,24.0,-165.0,4000.0,1917.0,-4000.0,4000.0
118.0,-546.0,42.0,60.0,4000.0,1405.0,-4000.0,4000.0
100.0,-631.0,15.0,377.0,4000.0,336.0,-4000.0,4000.0
-2.0,-631.0,27.0,655.0,4000.0,303.0,-4000.0,4000.0
-88.0,-593.0,95.0,613.0,4000.0,-227.0,-4000.0,4000.0
-77.0,-239.0,89.0,378.0,4000.0,-565.0,-4000.0,4000.0
-21.0,20.0,45.0,152.0,1509.0,-411.0,-4000.0,4000.0
-33.0,164.0,38.0,116.0,-2379.0,-771.0,-4000.0,4000.0
-48.0,225.0,-44.0,-63.0,-4000.0,-630.0,-4000.0,4000.0
-59.0,225.0,-110.0,-580.0,-4000.0,-706.0,-4000.0,4000.0
-69.0,290.0,-129.0,-1109.0,-4000.0,-402.0,-4000.0,4000.0
-73.0,294.0,-145.0,-895.0,-4000.0,-442.0,-4000.0,4000.0
-107.0,621.0,-121.0,-409.0,-4000.0,-464.0,-4000.0,4000.0
-94.0,933.0,-140.0,-212.0,-4000.0,-332.0,-4000.0,4000.0
-95.0,672.0,-149.0,-9.0,-4000.0,-274.0,-4000.0,4000.0
-99.0,7.0,-144.0,146.0,-4000.0,-98.0,-4000.0,591.0
-78.0,-340.0,-92.0,457.0,-4000.0,-91.0,-4000.0,-1826.0
-55.0,-631.0,-38.0,512.0,-4000.0,126.0,-4000.0,-3655.0
-43.0,-874.0,-53.0,598.0,-4000.0,98.0,-4000.0,-4000.0
-24.0,-830.0,-80.0,622.0,-4000.0,46.0,-4000.0,-4000.0
6.0,-656.0,-110.0,122.0,-4000.0,17.0,-4000.0,-4000.0
-39.0,-295.0,-136.0,-565.0,-4000.0,100.0,-3981.0,-4000.0
-21.0,-117.0,-121.0,-772.0,-4000.0,268.0,-3585.0,-4000.0
9.0,-57.0,-83.0,-414.0,-4000.0,433.0,-3196.0,-4000.0
-4.0,34.0,-47.0,-263.0,-4000.0,597.0,-2805.0,-4000.0
-1.0,200.0,36.0,-210.0,-4000.0,641.0,-2453.0,-4000.0
-32.0,306.0,46.0,31.0,-4000.0,636.0,-2055.0,-4000.0
-21.0,353.0,55.0,174.0,-4000.0,557.0,-1551.0,-2556.0
1.0,406.0,140.0,297.0,-4000.0,667.0,-1197.0,-3253.0
-24.0,615.0,203.0,539.0,-4000.0,687.0,-1030.0,-4000.0
-4.0,855.0,150.0,574.0,-4000.0,571.0,-762.0,-1660.0
14.0,582.0,42.0,290.0,-4000.0,480.0,-318.0,-1339.0
-39.0,380.0,-36.0,62.0,-3237.0,319.0,120.0,-683.0
-61.0,305.0,-72.0,242.0,-1398.0,185.0,268.0,-92.0
11.0,182.0,-92.0,258.0,-850.0,76.0,628.0,1260.0
32.0,21.0,-73.0,106.0,-307.0,-73.0,1084.0,4000.0
-3.0,-352.0,162.0,99.0,497.0,-206.0,1326.0,4000.0
0.0,-650.0,311.0,-48.0,1840.0,-258.0,1593.0,3869.0
-12.0,-684.0,166.0,-61.0,3916.0,-289.0,1640.0,988.0
-36.0,-404.0,73.0,-53.0,4000.0,-278.0,1843.0,-1143.0
-23.0,-200.0,-49.0,-38.0,4000.0,-289.0,2232.0,-3593.0
25.0,78.0,-163.0,-31.0,4000.0,-238.0,2256.0,-4000.0
60.0,334.0,-135.0,-9.0,4000.0,-42.0,2379.0,-4000.0
9.0,681.0,-90.0,32.0,4000.0,-58.0,2647.0,-4000.0
-13.0,1128.0,-43.0,26.0,4000.0,-257.0,2631.0,-4000.0
-51.0,1006.0,-61.0,54.0,4000.0,-383.0,2570.0,-4000.0
-95.0,451.0,-17.0,32.0,4000.0,-284.0,2684.0,-4000.0
-50.0,17.0,16.0,22.0,4000.0,-185.0,2879.0,-4000.0
-98.0,-287.0,-7.0,-102.0,4000.0,-208.0,2826.0,-4000.0
-196.0,-539.0,-64.0,-206.0,4000.0,12.0,2708.0,-4000.0
-167.0,-408.0,-112.0,-220.0,4000.0,211.0,2579.0,-4000.0
-116.0,-407.0,-135.0,-251.0,4000.0,445.0,2492.0,-4000.0
-107.0,-369.0,-57.0,-283.0,4000.0,613.0,2684.0,-4000.0
-82.0,-293.0,52.0,-260.0,4000.0,463.0,2321.0,-4000.0
-90.0,-314.0,59.0,-131.0,4000.0,155.0,2226.0,-4000.0
-71.0,-289.0,195.0,5.0,4000.0,-394.0,2125.0,-3695.0
-75.0,-299.0,201.0,66.0,4000.0,-707.0,1984.0,-211.0
-83.0,-150.0,215.0,29.0,4000.0,-745.0,1906.0,2484.0
-111.0,-127.0,231.0,-16.0,4000.0,-672.0,1341.0,4000.0
-184.0,-202.0,175.0,-12.0,4000.0,-786.0,1280.0,4000.0
-162.0,-108.0,162.0,-32.0,4000.0,-737.0,1011.0,4000.0
-124.0,-39.0,19.0,-44.0,4000.0,-607.0,824.0,4000.0
-114.0,50.0,6.0,20.0,4000.0,-737.0,772.0,4000.0
-88.0,162.0,130.0,45.0,3074.0,-521.0,451.0,4000.0
-66.0,190.0,382.0,43.0,-3066.0,-332.0,470.0,4000.0
-75.0,160.0,573.0,22.0,-4000.0,-75.0,301.0,4000.0
-96.0,122.0,589.0,-22.0,-4000.0,-86.0,70.0,4000.0
-118.0,103.0,502.0,-15.0,-4000.0,-226.0,-29.0,4000.0
-109.0,99.0,1.0,-45.0,-4000.0,-411.0,-169.0,4000.0
-121.0,67.0,-688.0,-28.0,-4000.0,-521.0,-510.0,4000.0
-123.0,-2.0,-976.0,-82.0,-4000.0,-344.0,-613.0,4000.0
-112.0,-8.0,-825.0,-101.0,-4000.0,-327.0,-621.0,4000.0
-119.0,-6.0,-641.0,35.0,-4000.0,-175.0,-676.0,4000.0
-99.0,-14.0,-490.0,-51.0,-4000.0,-152.0,-781.0,1476.0
-103.0,-8.0,-364.0,-495.0,-4000.0,-151.0,-861.0,-2670.0
-96.0,-10.0,-344.0,-719.0,-4000.0,-267.0,-907.0,-4000.0
-73.0,-7.0,-129.0,-365.0,-4000.0,-258.0,-917.0,-4000.0
-62.0,25.0,119.0,102.0,-4000.0,-216.0,-1006.0,-3414.0
-39.0,8.0,183.0,483.0,-4000.0,-447.0,-1184.0,-132.0
-55.0,-21.0,115.0,678.0,-4000.0,-393.0,-1193.0,751.0
-24.0,-4.0,72.0,603.0,-4000.0,-373.0,-1397.0,3910.0
4.0,10.0,89.0,295.0,-4000.0,-535.0,-1441.0,3535.0
-1.0,30.0,82.0,-82.0,-4000.0,-600.0,-1332.0,4000.0
12.0,7.0,17.0,-92.0,-3521.0,-267.0,-1055.0,4000.0
24.0,6.0,42.0,76.0,-2692.0,-98.0,-428.0,3523.0
33.0,34.0,150.0,-47.0,-2147.0,-272.0,-117.0,3340.0
42.0,64.0,207.0,-44.0,-877.0,-320.0,-214.0,2572.0
37.0,49.0,244.0,73.0,-72.0,-406.0,-391.0,2248.0
-1.0,33.0,269.0,-104.0,226.0,-362.0,-387.0,876.0
2.0,47.0,318.0,-149.0,25.0,-194.0,-555.0,40.0
18.0,40.0,276.0,-214.0,-1255.0,-188.0,-538.0,-1188.0
3.0,50.0,171.0,-212.0,-1756.0,-613.0,-239.0,-2218.0
-47.0,41.0,207.0,-206.0,-3237.0,-541.0,-61.0,-3462.0
-40.0,30.0,107.0,-426.0,-4000.0,-546.0,71.0,-4000.0
-13.0,-8.0,71.0,-401.0,-2735.0,-602.0,179.0,-4000.0
96.0,-33.0,72.0,-397.0,882.0,-255.0,433.0,-4000.0
113.0,-42.0,67.0,-323.0,2231.0,-401.0,394.0,-4000.0
44.0,-21.0,212.0,-168.0,2889.0,-333.0,677.0,-4000.0
105.0,-3.0,187.0,-85.0,4000.0,-72.0,1189.0,-4000.0
60.0,-11.0,231.0,77.0,4000.0,90.0,1072.0,-4000.0
56.0,-11.0,234.0,181.0,4000.0,274.0,968.0,-4000.0
24.0,-104.0,195.0,301.0,4000.0,896.0,954.0,-4000.0
-90.0,-159.0,135.0,309.0,3410.0,1340.0,795.0,-4000.0
-32.0,-121.0,-91.0,174.0,1918.0,1083.0,746.0,-4000.0
-1.0,-50.0,-247.0,75.0,1930.0,961.0,532.0,-4000.0
41.0,-37.0,-259.0,-4.0,3747.0,947.0,298.0,-4000.0
80.0,-79.0,-312.0,-120.0,4000.0,778.0,286.0,-4000.0
-6.0,-57.0,-215.0,-21.0,4000.0,998.0,365.0,-4000.0
32.0,20.0,-49.0,69.0,4000.0,961.0,364.0,-4000.0
117.0,70.0,-100.0,59.0,4000.0,673.0,315.0,-4000.0
281.0,92.0,-27.0,111.0,4000.0,1183.0,291.0,-1013.0
416.0,101.0,-38.0,44.0,4000.0,1121.0,407.0,1859.0
250.0,94.0,-99.0,-129.0,4000.0,303.0,767.0,4000.0
269.0,120.0,-17.0,-63.0,4000.0,384.0,858.0,4000.0
595.0,182.0,11.0,158.0,4000.0,1193.0,1345.0,4000.0
970.0,180.0,95.0,170.0,4000.0,1123.0,2086.0,4000.0
666.0,89.0,107.0,55.0,4000.0,1071.0,2255.0,4000.0
16.0,-36.0,50.0,-25.0,4000.0,1409.0,1854.0,4000.0
-163.0,-55.0,-6.0,-22.0,4000.0,876.0,1149.0,4000.0
-354.0,-152.0,-99.0,-7.0,4000.0,390.0,311.0,4000.0
-327.0,-234.0,-72.0,28.0,4000.0,771.0,-355.0,4000.0
-116.0,-88.0,-76.0,-115.0,4000.0,804.0,-1173.0,4000.0
-53.0,15.0,-108.0,-160.0,4000.0,771.0,-2549.0,4000.0
-41.0,85.0,7.0,-62.0,4000.0,1322.0,-3603.0,4000.0
147.0,41.0,108.0,24.0,4000.0,1601.0,-3984.0,4000.0
159.0,30.0,64.0,190.0,4000.0,1124.0,-3407.0,4000.0
112.0,126.0,70.0,181.0,4000.0,823.0,-3390.0,4000.0
241.0,205.0,71.0,132.0,4000.0,823.0,-3882.0,4000.0
41.0,233.0,63.0,132.0,4000.0,219.0,-4000.0,2313.0
-150.0,182.0,103.0,144.0,4000.0,-194.0,-4000.0,1272.0
-241.0,200.0,110.0,56.0,4000.0,-733.0,-3920.0,896.0
-237.0,40.0,48.0,-61.0,4000.0,-602.0,-2869.0,890.0
-306.0,-247.0,132.0,-28.0,3476.0,202.0,-1462.0,1846.0
-491.0,-421.0,149.0,-11.0,1124.0,548.0,-613.0,3662.0
-649.0,-399.0,75.0,-105.0,-140.0,953.0,-737.0,4000.0
-311.0,-85.0,508.0,-143.0,-1606.0,687.0,-882.0,4000.0
192.0,87.0,1233.0,-107.0,-3669.0,-136.0,-790.0,4000.0
430.0,73.0,1690.0,-17.0,-4000.0,-1070.0,-298.0,4000.0
422.0,-5.0,541.0,19.0,-4000.0,-1526.0,-440.0,4000.0
-21.0,-111.0,-1302.0,-147.0,-4000.0,-1227.0,-923.0,4000.0
5.0,-177.0,-2072.0,-285.0,-4000.0,-1062.0,-1187.0,4000.0
-86.0,-212.0,-2104.0,-306.0,-4000.0,-1050.0,-3261.0,4000.0
-220.0,-103.0,-1557.0,-332.0,-4000.0,-1205.0,-4000.0,4000.0
-218.0,-21.0,-1069.0,-301.0,-4000.0,-1135.0,-3441.0,4000.0
-301.0,-134.0,-672.0,-206.0,-4000.0,-1135.0,-3000.0,74.0
-141.0,-151.0,-378.0,-149.0,-4000.0,-1330.0,-3184.0,-4000.0
61.0,0.0,-66.0,-41.0,-4000.0,-1322.0,-4000.0,-4000.0
418.0,102.0,408.0,93.0,-4000.0,-1532.0,-4000.0,-4000.0
583.0,221.0,716.0,236.0,-4000.0,-1461.0,-4000.0,-4000.0
477.0,146.0,345.0,258.0,-4000.0,-917.0,-4000.0,-4000.0
187.0,-28.0,-257.0,210.0,-4000.0,-402.0,-4000.0,-4000.0
-91.0,-122.0,128.0,144.0,-4000.0,67.0,-4000.0,-4000.0
-300.0,-166.0,577.0,-75.0,-4000.0,628.0,-4000.0,-1735.0
-126.0,-46.0,844.0,-151.0,-4000.0,376.0,-4000.0,3853.0
41.0,-37.0,748.0,-133.0,-4000.0,-334.0,-4000.0,4000.0
82.0,14.0,663.0,-59.0,-4000.0,-474.0,-4000.0,4000.0
212.0,124.0,866.0,-28.0,-4000.0,-459.0,-1383.0,4000.0
181.0,132.0,801.0,-78.0,-4000.0,32.0,1667.0,4000.0
157.0,80.0,1549.0,-151.0,-4000.0,473.0,2492.0,4000.0
-37.0,-18.0,3043.0,-131.0,-4000.0,-104.0,3282.0,4000.0
53.0,90.0,3983.0,36.0,-4000.0,-358.0,4000.0,4000.0
208.0,179.0,4000.0,73.0,-4000.0,184.0,4000.0,4000.0
24.0,125.0,2520.0,120.0,-4000.0,597.0,4000.0,4000.0
-98.0,157.0,-2757.0,182.0,-4000.0,873.0,4000.0,4000.0
-116.0,244.0,-4000.0,132.0,-4000.0,896.0,4000.0,4000.0
-155.0,294.0,-4000.0,54.0,-3521.0,479.0,4000.0,1252.0
-102.0,365.0,-4000.0,125.0,-2338.0,408.0,4000.0,-2800.0
27.0,395.0,-4000.0,182.0,-1918.0,860.0,4000.0,-4000.0
67.0,304.0,-2639.0,240.0,-2421.0,1352.0,4000.0,-4000.0
112.0,129.0,217.0,317.0,-3655.0,1254.0,4000.0,-4000.0
30.0,-19.0,1900.0,115.0,-4000.0,45.0,4000.0,-4000.0
70.0,85.0,712.0,52.0,-4000.0,-945.0,4000.0,-4000.0
51.0,134.0,-709.0,246.0,-4000.0,-1526.0,4000.0,-4000.0
-93.0,-70.0,-1427.0,390.0,-4000.0,-2219.0,4000.0,-4000.0
181.0,-236.0,-1917.0,316.0,4000.0,-3010.0,4000.0,-4000.0
332.0,-375.0,-1648.0,258.0,4000.0,-3317.0,1931.0,-4000.0
122.0,-444.0,-1146.0,181.0,4000.0,-2685.0,191.0,-4000.0
86.0,-401.0,-315.0,-196.0,4000.0,-1802.0,1293.0,-4000.0
177.0,-215.0,9.0,-487.0,4000.0,-676.0,4000.0,-4000.0
240.0,-29.0,44.0,-523.0,4000.0,375.0,4000.0,-4000.0
382.0,62.0,642.0,-291.0,-4000.0,1140.0,4000.0,-4000.0
257.0,63.0,1387.0,104.0,-4000.0,1474.0,4000.0,-4000.0
-222.0,50.0,1184.0,199.0,-4000.0,1734.0,4000.0,-4000.0
-380.0,121.0,190.0,44.0,-4000.0,1547.0,4000.0,-4000.0
-318.0,135.0,511.0,-168.0,-4000.0,725.0,4000.0,-4000.0
-406.0,95.0,2224.0,-371.0,-4000.0,-383.0,4000.0,-4000.0
-351.0,35.0,3983.0,-411.0,-4000.0,-1121.0,4000.0,-4000.0
387.0,229.0,2924.0,-239.0,-4000.0,-1330.0,4000.0,-4000.0
733.0,607.0,654.0,103.0,-4000.0,-1633.0,3021.0,-4000.0
-515.0,746.0,-557.0,163.0,-4000.0,-1373.0,-750.0,-4000.0
-2049.0,811.0,-1294.0,99.0,-4000.0,-1030.0,-3249.0,-4000.0
-2682.0,587.0,-651.0,50.0,-4000.0,-790.0,-4000.0,-4000.0
-2610.0,-32.0,-651.0,-279.0,-4000.0,-434.0,-4000.0,-4000.0
-2043.0,-640.0,-450.0,-498.0,-4000.0,-317.0,-4000.0,-4000.0
-763.0,-804.0,410.0,-571.0,4000.0,-489.0,-4000.0,-4000.0
798.0,-346.0,858.0,-357.0,4000.0,-1005.0,-4000.0,-2050.0
2518.0,132.0,2001.0,-145.0,4000.0,-1452.0,-4000.0,-276.0
3052.0,229.0,4000.0,-13.0,4000.0,-1814.0,-4000.0,1004.0
1962.0,-187.0,4000.0,152.0,4000.0,-1780.0,-4000.0,3031.0
1293.0,-279.0,4000.0,207.0,4000.0,-1075.0,-4000.0,4000.0
1110.0,-234.0,114.0,457.0,4000.0,-152.0,-4000.0,4000.0
1319.0,-236.0,-1292.0,422.0,4000.0,325.0,-4000.0,4000.0
2015.0,-209.0,-4000.0,142.0,4000.0,791.0,-4000.0,4000.0
1755.0,-520.0,-4000.0,-57.0,4000.0,1669.0,-4000.0,4000.0
494.0,-568.0,-1927.0,-218.0,4000.0,1824.0,-4000.0,4000.0
-260.0,-566.0,177.0,-165.0,4000.0,2164.0,-4000.0,4000.0
-378.0,-448.0,1045.0,-173.0,4000.0,2861.0,-4000.0,4000.0
-604.0,-326.0,1444.0,-49.0,4000.0,3214.0,-3118.0,4000.0
-1162.0,-287.0,-1581.0,85.0,4000.0,4000.0,-2408.0,4000.0
-1524.0,-129.0,-4000.0,-102.0,4000.0,4000.0,-1914.0,4000.0
-1267.0,-47.0,-4000.0,-190.0,4000.0,4000.0,-1897.0,4000.0
-1039.0,-40.0,-622.0,-143.0,4000.0,4000.0,-1250.0,-3448.0
-1192.0,5.0,1438.0,-26.0,4000.0,4000.0,824.0,-4000.0
-1175.0,-16.0,-2007.0,77.0,4000.0,4000.0,2492.0,-4000.0
-710.0,-45.0,-4000.0,329.0,4000.0,4000.0,2647.0,-4000.0
47.0,129.0,-4000.0,538.0,4000.0,4000.0,3009.0,-4000.0
725.0,215.0,-4000.0,364.0,4000.0,4000.0,2956.0,-4000.0
451.0,282.0,-2964.0,-19.0,-4000.0,-2392.0,3007.0,-4000.0
-649.0,286.0,-1600.0,-196.0,-4000.0,-4000.0,3140.0,-3545.0
-589.0,241.0,-36.0,4.0,-4000.0,-4000.0,2956.0,-2519.0
-188.0,290.0,771.0,223.0,-4000.0,-4000.0,2749.0,-1384.0
-142.0,205.0,1497.0,165.0,-4000.0,-4000.0,1776.0,-1005.0
-188.0,92.0,1243.0,-52.0,-4000.0,-4000.0,1206.0,-1404.0
-300.0,95.0,1133.0,-112.0,-4000.0,-3657.0,1137.0,-953.0
-47.0,200.0,1739.0,61.0,-4000.0,-3829.0,1483.0,-562.0
-53.0,216.0,2978.0,198.0,-4000.0,-881.0,2061.0,808.0
-102.0,96.0,4000.0,163.0,-4000.0,4000.0,2449.0,1411.0
48.0,34.0,4000.0,77.0,-4000.0,4000.0,2814.0,1456.0
308.0,-23.0,2471.0,-6.0,-4000.0,4000.0,3803.0,3458.0
-128.0,3.0,1171.0,-5.0,-4000.0,4000.0,4000.0,4000.0
-625.0,103.0,-111.0,-37.0,-4000.0,4000.0,4000.0,4000.0
-396.0,138.0,-1427.0,-110.0,-4000.0,4000.0,4000.0,4000.0
-258.0,82.0,-389.0,3.0,-4000.0,4000.0,4000.0,4000.0
-180.0,-37.0,1574.0,-1.0,-4000.0,4000.0,4000.0,4000.0
-52.0,-43.0,3368.0,-220.0,-4000.0,-2922.0,4000.0,4000.0
423.0,26.0,3251.0,-322.0,-4000.0,-4000.0,4000.0,4000.0
680.0,78.0,1550.0,-208.0,-4000.0,-4000.0,4000.0,3144.0
790.0,43.0,-2895.0,-67.0,-4000.0,-4000.0,3009.0,2284.0
905.0,22.0,-4000.0,48.0,-4000.0,-4000.0,2696.0,1272.0
644.0,-6.0,-3958.0,77.0,-4000.0,-4000.0,2190.0,420.0
351.0,-97.0,-1878.0,96.0,-4000.0,-4000.0,1149.0,-1590.0
34.0,-74.0,-132.0,77.0,-4000.0,-4000.0,-207.0,-4000.0
119.0,40.0,-528.0,-44.0,-4000.0,-4000.0,-2056.0,-4000.0
43.0,58.0,53.0,-87.0,-4000.0,-4000.0,-4000.0,-4000.0
-223.0,24.0,559.0,-104.0,-4000.0,-4000.0,-4000.0,-4000.0
-261.0,21.0,1989.0,-279.0,-4000.0,-4000.0,-4000.0,-4000.0
-316.0,-20.0,2474.0,-401.0,-4000.0,-4000.0,-4000.0,-1921.0
-91.0,0.0,1387.0,-387.0,-4000.0,-4000.0,-4000.0,-1339.0
-72.0,75.0,109.0,-377.0,-3576.0,-4000.0,-4000.0,-2309.0
-43.0,49.0,-2123.0,-300.0,-356.0,-4000.0,-4000.0,-1170.0
-47.0,-65.0,-3420.0,-131.0,676.0,-4000.0,-4000.0,-1613.0
-144.0,-77.0,-3926.0,255.0,-3572.0,-4000.0,-4000.0,-4000.0
-120.0,1.0,-3343.0,272.0,-3586.0,-4000.0,-4000.0,-4000.0
-201.0,-69.0,-2757.0,-149.0,-3083.0,-4000.0,-4000.0,-4000.0
-218.0,-111.0,-1944.0,-289.0,-3066.0,-4000.0,-4000.0,-4000.0
-110.0,-108.0,-1152.0,-310.0,-2843.0,-4000.0,-4000.0,-4000.0
0.0,-95.0,-682.0,-228.0,-2611.0,-1441.0,-4000.0,-4000.0
10.0,-6.0,564.0,-108.0,-2421.0,2812.0,-4000.0,-3992.0
123.0,0.0,1509.0,-23.0,-2238.0,4000.0,-4000.0,-1891.0
74.0,31.0,1639.0,134.0,-2079.0,4000.0,-4000.0,1077.0
85.0,37.0,1517.0,248.0,-1142.0,4000.0,-4000.0,1533.0
127.0,91.0,1794.0,290.0,-186.0,4000.0,-4000.0,1964.0
382.0,260.0,2333.0,146.0,162.0,4000.0,-4000.0,4000.0
651.0,228.0,2978.0,4.0,1405.0,4000.0,-4000.0,4000.0
294.0,84.0,3304.0,8.0,4000.0,4000.0,-4000.0,4000.0
-26.0,12.0,1703.0,66.0,4000.0,4000.0,-4000.0,4000.0
-228.0,-74.0,217.0,146.0,4000.0,4000.0,-4000.0,4000.0
-379.0,-132.0,-12.0,245.0,4000.0,4000.0,-4000.0,4000.0
-357.0,-94.0,-263.0,240.0,4000.0,4000.0,-4000.0,4000.0
-323.0,-31.0,9.0,187.0,4000.0,4000.0,-4000.0,4000.0
-232.0,7.0,362.0,187.0,4000.0,4000.0,-4000.0,4000.0
-45.0,55.0,898.0,32.0,4000.0,3345.0,-4000.0,4000.0
39.0,93.0,917.0,-62.0,4000.0,-595.0,-3520.0,4000.0
5.0,122.0,634.0,-56.0,4000.0,-3470.0,2492.0,4000.0
-91.0,99.0,318.0,30.0,4000.0,-4000.0,4000.0,4000.0
-180.0,38.0,-112.0,99.0,4000.0,-4000.0,4000.0,4000.0
67.0,88.0,-409.0,-46.0,4000.0,-3193.0,533.0,4000.0
733.0,70.0,-702.0,-72.0,4000.0,-50.0,1939.0,3120.0
1130.0,38.0,-511.0,-96.0,4000.0,2019.0,4000.0,2819.0
361.0,40.0,-175.0,18.0,4000.0,386.0,4000.0,1663.0
-383.0,36.0,89.0,75.0,4000.0,-2712.0,4000.0,-55.0
-523.0,26.0,-37.0,75.0,4000.0,-4000.0,4000.0,-1055.0
-619.0,-15.0,77.0,50.0,4000.0,-4000.0,4000.0,-2244.0
-445.0,-7.0,364.0,246.0,4000.0,-3864.0,4000.0,-2800.0
-323.0,-8.0,295.0,988.0,4000.0,-2063.0,4000.0,-2231.0
-163.0,0.0,119.0,777.0,4000.0,-316.0,4000.0,-1234.0
-296.0,-8.0,-259.0,4.0,-1265.0,1666.0,4000.0,74.0
-351.0,-31.0,-364.0,-458.0,-4000.0,3083.0,4000.0,1374.0
-266.0,-75.0,-421.0,-891.0,-4000.0,3101.0,4000.0,1251.0
-248.0,-87.0,-505.0,-1049.0,-4000.0,1775.0,4000.0,811.0
-135.0,-40.0,-445.0,-1356.0,-4000.0,409.0,4000.0,654.0
-157.0,-49.0,-238.0,-984.0,-4000.0,66.0,4000.0,210.0
-41.0,-35.0,-129.0,-560.0,-4000.0,368.0,4000.0,-1234.0
25.0,-41.0,-234.0,-218.0,-4000.0,-423.0,4000.0,-2876.0
7.0,-29.0,-179.0,232.0,-4000.0,-2248.0,4000.0,-4000.0
32.0,-30.0,6.0,472.0,-4000.0,-3959.0,4000.0,-4000.0
62.0,-69.0,20.0,994.0,-4000.0,-4000.0,4000.0,-4000.0
118.0,-5.0,-65.0,971.0,-4000.0,-4000.0,4000.0,-4000.0
129.0,-1.0,-86.0,382.0,-4000.0,-4000.0,4000.0,-4000.0
137.0,-28.0,-84.0,236.0,-4000.0,-4000.0,4000.0,-4000.0
180.0,-57.0,-46.0,215.0,-4000.0,-4000.0,4000.0,-3462.0
177.0,-75.0,-77.0,26.0,-4000.0,-4000.0,4000.0,-1185.0
169.0,-56.0,-54.0,-110.0,-4000.0,-4000.0,4000.0,239.0
167.0,-88.0,-22.0,-80.0,-4000.0,-4000.0,4000.0,1044.0
141.0,-54.0,62.0,370.0,-3586.0,-4000.0,4000.0,-242.0
139.0,-62.0,183.0,484.0,-4000.0,-4000.0,4000.0,522.0
116.0,-122.0,183.0,-50.0,-3754.0,-4000.0,4000.0,1568.0
108.0,-204.0,83.0,-621.0,-2406.0,-4000.0,3542.0,2948.0
109.0,-139.0,-32.0,-784.0,-1849.0,-4000.0,1158.0,4000.0
123.0,1.0,-71.0,-614.0,-2484.0,-4000.0,-946.0,4000.0
86.0,-28.0,-61.0,-511.0,-4000.0,-3749.0,-4000.0,1686.0
46.0,12.0,-21.0,-300.0,-4000.0,-2815.0,-4000.0,-398.0
42.0,32.0,8.0,-114.0,-4000.0,-2725.0,-4000.0,-2392.0
39.0,22.0,17.0,-218.0,-4000.0,-2392.0,-4000.0,-2392.0
36.0,9.0,0.0,-597.0,-4000.0,-1664.0,-4000.0,-2629.0
-2.0,-30.0,-54.0,-1095.0,-4000.0,-899.0,-4000.0,-2502.0
4.0,-31.0,-14.0,-978.0,-4000.0,278.0,-4000.0,1260.0
11.0,-12.0,31.0,-260.0,-4000.0,1222.0,-4000.0,3275.0
-12.0,16.0,-38.0,-2.0,-4000.0,1907.0,-4000.0,2507.0
-32.0,-2.0,-7.0,276.0,-4000.0,2629.0,-4000.0,1989.0
-3.0,24.0,46.0,634.0,-4000.0,3345.0,-4000.0,1012.0
-3.0,1.0,40.0,699.0,-4000.0,3621.0,-4000.0,528.0
-32.0,17.0,55.0,858.0,-4000.0,3125.0,-4000.0,207.0
12.0,50.0,61.0,1098.0,-1814.0,3018.0,-4000.0,556.0
30.0,40.0,37.0,1684.0,2943.0,2971.0,-4000.0,2237.0
34.0,29.0,-86.0,1184.0,4000.0,3004.0,-4000.0,2314.0
-7.0,16.0,-241.0,-145.0,4000.0,3214.0,-4000.0,2369.0
-32.0,48.0,-414.0,-430.0,4000.0,3539.0,-4000.0,2770.0
-36.0,29.0,-515.0,-387.0,4000.0,4000.0,-4000.0,3738.0
-34.0,-4.0,-523.0,-308.0,4000.0,4000.0,-4000.0,4000.0
-42.0,13.0,-450.0,-82.0,4000.0,4000.0,-4000.0,3487.0
-34.0,106.0,-242.0,-10.0,4000.0,4000.0,-2405.0,3031.0
-23.0,106.0,15.0,174.0,4000.0,3345.0,-1057.0,2433.0
-27.0,34.0,333.0,87.0,4000.0,2629.0,-140.0,583.0
-19.0,67.0,606.0,316.0,1710.0,1904.0,506.0,-1404.0
-24.0,52.0,923.0,590.0,-191.0,1148.0,637.0,-2412.0
-29.0,44.0,1197.0,-22.0,-1919.0,896.0,1984.0,-1271.0
-37.0,34.0,1119.0,-594.0,-2421.0,1163.0,2102.0,629.0
-10.0,1.0,903.0,-568.0,-1951.0,1604.0,1475.0,1195.0
-41.0,-30.0,781.0,-143.0,-2095.0,1824.0,888.0,1176.0
-46.0,-12.0,590.0,217.0,-1309.0,1527.0,235.0,1006.0
-30.0,21.0,374.0,8.0,67.0,1409.0,-448.0,-679.0
-41.0,-4.0,213.0,-735.0,1213.0,1482.0,-672.0,-2022.0
-2.0,4.0,158.0,-831.0,766.0,1473.0,-1051.0,-1679.0
-14.0,-18.0,126.0,-206.0,953.0,1787.0,-2107.0,-602.0
-42.0,17.0,39.0,31.0,2254.0,2759.0,-2224.0,-142.0
-36.0,0.0,-22.0,156.0,4000.0,3900.0,-2714.0,955.0
-16.0,-28.0,-28.0,-145.0,4000.0,4000.0,-2577.0,1411.0
-35.0,-12.0,-22.0,-298.0,4000.0,4000.0,-2728.0,551.0
-56.0,-48.0,30.0,-365.0,4000.0,3914.0,-3700.0,-161.0
-39.0,-7.0,92.0,-332.0,4000.0,3705.0,-4000.0,-2218.0
-31.0,19.0,123.0,-158.0,4000.0,3785.0,-4000.0,-4000.0
-14.0,20.0,-17.0,-59.0,4000.0,3202.0,-4000.0,-4000.0
9.0,27.0,-308.0,439.0,4000.0,2255.0,-4000.0,-3824.0
26.0,29.0,-383.0,498.0,4000.0,2045.0,-4000.0,-948.0
-1.0,40.0,-651.0,622.0,4000.0,2289.0,-4000.0,1134.0
12.0,10.0,-799.0,740.0,4000.0,2971.0,-4000.0,564.0
22.0,-7.0,-799.0,819.0,4000.0,3539.0,-4000.0,438.0
40.0,20.0,-1036.0,663.0,4000.0,3792.0,-4000.0,239.0
15.0,25.0,-882.0,467.0,4000.0,3857.0,-4000.0,1176.0
-3.0,17.0,-759.0,622.0,4000.0,3751.0,-4000.0,1411.0
23.0,10.0,-694.0,565.0,4000.0,3333.0,-3993.0,680.0
12.0,5.0,-687.0,-51.0,4000.0,2189.0,-3445.0,882.0
4.0,18.0,-727.0,-336.0,4000.0,1669.0,-2921.0,727.0
-58.0,17.0,-682.0,-68.0,4000.0,1026.0,-2353.0,-107.0
-154.0,-66.0,-709.0,-194.0,4000.0,-125.0,-1749.0,-1430.0
-215.0,-49.0,-668.0,-114.0,4000.0,-676.0,-1201.0,-1083.0
-129.0,9.0,-671.0,-116.0,4000.0,-1550.0,-897.0,-711.0
-67.0,27.0,-552.0,-263.0,4000.0,-2337.0,-787.0,-794.0
-99.0,15.0,-447.0,-432.0,4000.0,-2313.0,-707.0,564.0
-67.0,-3.0,-385.0,-455.0,4000.0,-1511.0,-658.0,608.0
-58.0,6.0,-328.0,-486.0,4000.0,-867.0,-536.0,201.0
-36.0,5.0,-314.0,-702.0,4000.0,-733.0,-363.0,424.0
-3.0,18.0,-316.0,-749.0,4000.0,-737.0,-120.0,551.0
3.0,8.0,-283.0,-830.0,4000.0,-1550.0,220.0,670.0
30.0,9.0,-182.0,-580.0,4000.0,-1780.0,456.0,-80.0
18.0,10.0,-238.0,-507.0,4000.0,-1062.0,746.0,-379.0
13.0,18.0,-307.0,-379.0,4000.0,149.0,1149.0,-605.0
7.0,-3.0,-153.0,-198.0,4000.0,888.0,1512.0,-859.0
-24.0,-7.0,54.0,-124.0,4000.0,603.0,1593.0,-818.0
11.0,16.0,12.0,77.0,4000.0,480.0,1640.0,-948.0
44.0,31.0,-80.0,45.0,4000.0,628.0,1705.0,-866.0
60.0,46.0,-7.0,92.0,4000.0,831.0,1640.0,-687.0
54.0,62.0,38.0,110.0,4000.0,368.0,1540.0,-862.0
73.0,48.0,-54.0,44.0,4000.0,-584.0,1418.0,-1241.0
104.0,29.0,-143.0,25.0,4000.0,-1396.0,1288.0,-1204.0
122.0,33.0,-193.0,-8.0,4000.0,-1647.0,1202.0,-1013.0
241.0,37.0,-215.0,12.0,4000.0,-1311.0,1158.0,-789.0
275.0,66.0,-172.0,55.0,4000.0,-1633.0,1228.0,-692.0
248.0,33.0,-292.0,75.0,4000.0,-2209.0,1388.0,-801.0
187.0,21.0,-450.0,87.0,4000.0,-2569.0,1418.0,-1111.0
101.0,-14.0,-464.0,85.0,4000.0,-2919.0,1341.0,-1191.0
187.0,-23.0,-487.0,6.0,4000.0,-3117.0,1125.0,-972.0
382.0,15.0,-434.0,-311.0,4000.0,-3657.0,1051.0,-713.0
650.0,-36.0,-369.0,-366.0,4000.0,-4000.0,1183.0,-406.0
473.0,4.0,-263.0,-42.0,4000.0,-4000.0,1158.0,-295.0
-84.0,9.0,8.0,87.0,4000.0,-3441.0,1098.0,-219.0
-451.0,-10.0,408.0,341.0,4000.0,-2267.0,1098.0,174.0
-807.0,19.0,560.0,459.0,4000.0,-1396.0,1019.0,141.0
-1019.0,3.0,280.0,433.0,4000.0,-550.0,1190.0,-218.0
-784.0,17.0,-111.0,402.0,4000.0,527.0,1228.0,82.0
-479.0,33.0,-363.0,329.0,3102.0,1405.0,1125.0,45.0
-246.0,51.0,-385.0,377.0,1800.0,1201.0,1293.0,-175.0
-288.0,70.0,-385.0,317.0,1405.0,-678.0,1345.0,-101.0
-523.0,16.0,-324.0,199.0,1136.0,-1766.0,1379.0,3.0
-567.0,-24.0,-279.0,68.0,-1433.0,-816.0,1353.0,16.0
-457.0,-21.0,-248.0,-16.0,-4000.0,384.0,1406.0,-606.0
-373.0,-38.0,-222.0,-171.0,-4000.0,1198.0,1580.0,-932.0
-327.0,-76.0,-277.0,-263.0,-4000.0,1531.0,1605.0,-953.0
-207.0,-94.0,-352.0,-253.0,-4000.0,1071.0,1734.0,-931.0
-110.0,-52.0,-416.0,-184.0,-4000.0,719.0,1800.0,-781.0
-27.0,-67.0,-414.0,-109.0,-4000.0,536.0,1734.0,-651.0
194.0,-75.0,-258.0,-82.0,-4000.0,87.0,1540.0,-459.0
408.0,-45.0,-64.0,-25.0,-2389.0,-163.0,1483.0,-524.0
473.0,-23.0,132.0,-11.0,1417.0,-394.0,1454.0,-1078.0
435.0,2.0,280.0,-18.0,4000.0,-419.0,1223.0,-1104.0
447.0,-39.0,401.0,-102.0,4000.0,-352.0,1076.0,-720.0
346.0,-137.0,429.0,-188.0,4000.0,-275.0,903.0,-605.0
137.0,-179.0,495.0,-226.0,4000.0,147.0,877.0,590.0
44.0,-137.0,559.0,-237.0,4000.0,750.0,889.0,1638.0
48.0,-68.0,474.0,-242.0,4000.0,1405.0,723.0,1639.0
-6.0,-21.0,532.0,-165.0,4000.0,1919.0,339.0,1568.0
-30.0,-1.0,606.0,48.0,3794.0,2094.0,-109.0,1663.0
47.0,49.0,813.0,207.0,3534.0,2189.0,-507.0,1437.0
97.0,87.0,807.0,204.0,3269.0,2255.0,-794.0,1077.0
382.0,105.0,728.0,134.0,3006.0,2124.0,-1232.0,1381.0
660.0,89.0,695.0,103.0,2760.0,2124.0,-1606.0,2183.0
434.0,103.0,546.0,113.0,2581.0,2099.0,-2043.0,2819.0
195.0,117.0,573.0,106.0,2386.0,2099.0,-2388.0,3079.0
342.0,76.0,512.0,41.0,2190.0,2124.0,-2353.0,2754.0
1124.0,80.0,385.0,-28.0,2047.0,1917.0,-2453.0,1912.0
1572.0,85.0,267.0,2.0,1930.0,1657.0,-2495.0,2183.0
441.0,55.0,171.0,30.0,1787.0,1507.0,-2650.0,3209.0
-339.0,73.0,112.0,-34.0,1644.0,1287.0,-2512.0,3340.0
-641.0,48.0,136.0,-9.0,1525.0,867.0,-2121.0,2819.0
-1011.0,37.0,198.0,48.0,1453.0,641.0,-1832.0,3067.0
-888.0,8.0,-24.0,77.0,1340.0,433.0,-1586.0,2770.0
-771.0,-50.0,-338.0,157.0,1213.0,197.0,-1376.0,2484.0
-493.0,-39.0,-572.0,164.0,1136.0,-52.0,-1108.0,2689.0
-348.0,-38.0,-727.0,170.0,1083.0,-304.0,-697.0,2314.0
-190.0,-45.0,-711.0,106.0,1006.0,-250.0,-66.0,2302.0
-102.0,-45.0,-817.0,-25.0,920.0,-269.0,380.0,2054.0
-377.0,-47.0,-912.0,-53.0,856.0,-308.0,888.0,2094.0
-569.0,-29.0,-971.0,-119.0,497.0,-485.0,1406.0,1977.0
-436.0,29.0,-833.0,-141.0,-144.0,-1010.0,1825.0,1663.0
-238.0,28.0,-507.0,-175.0,247.0,-1688.0,2309.0,1150.0
-98.0,37.0,-198.0,-198.0,748.0,-2467.0,2643.0,760.0
10.0,38.0,-11.0,-149.0,273.0,-3246.0,2890.0,817.0
-5.0,-23.0,-56.0,-276.0,-76.0,-4000.0,3128.0,544.0
38.0,-45.0,70.0,-546.0,-571.0,-4000.0,3202.0,491.0
92.0,-109.0,328.0,-749.0,-1306.0,-4000.0,3075.0,387.0
378.0,-106.0,585.0,-565.0,-1717.0,-4000.0,2908.0,600.0
660.0,-111.0,785.0,-263.0,-3327.0,-4000.0,2746.0,660.0
473.0,-125.0,931.0,45.0,-2935.0,-4000.0,2452.0,177.0
363.0,-72.0,1041.0,240.0,-1455.0,-4000.0,2049.0,6.0
220.0,-47.0,1041.0,187.0,-1446.0,-4000.0,1658.0,-161.0
32.0,-16.0,1020.0,114.0,-734.0,-852.0,1461.0,-482.0
-67.0,-31.0,908.0,69.0,106.0,2554.0,1341.0,-248.0
-170.0,-45.0,728.0,211.0,1853.0,4000.0,1052.0,-193.0
-160.0,-24.0,722.0,459.0,1733.0,4000.0,759.0,409.0
-228.0,-17.0,716.0,564.0,1474.0,4000.0,616.0,1118.0
-201.0,-18.0,455.0,260.0,1443.0,4000.0,681.0,863.0
-222.0,25.0,280.0,90.0,196.0,4000.0,1010.0,686.0
-311.0,62.0,134.0,16.0,-1717.0,4000.0,1259.0,751.0
-370.0,37.0,4.0,-66.0,-4000.0,4000.0,1378.0,890.0
-258.0,57.0,28.0,-11.0,-4000.0,4000.0,1526.0,399.0
-29.0,111.0,100.0,-127.0,-4000.0,4000.0,1605.0,70.0
-6.0,111.0,305.0,-88.0,-4000.0,4000.0,1418.0,-31.0
281.0,64.0,270.0,-3.0,-4000.0,3525.0,1084.0,-193.0
483.0,45.0,83.0,-29.0,-4000.0,1991.0,897.0,-455.0
249.0,37.0,77.0,-42.0,-4000.0,1390.0,790.0,-1127.0
99.0,45.0,-24.0,2.0,-4000.0,1018.0,554.0,-2347.0
-63.0,53.0,-6.0,103.0,-4000.0,1117.0,506.0,-3138.0
-165.0,31.0,-6.0,13.0,-4000.0,1405.0,673.0,-3126.0
-209.0,-21.0,-40.0,-237.0,-4000.0,-12.0,628.0,-3397.0
-155.0,-69.0,-37.0,-513.0,-4000.0,-3470.0,809.0,-3439.0
114.0,-80.0,-216.0,-636.0,-4000.0,-4000.0,1125.0,-4000.0
397.0,4.0,-287.0,-326.0,-4000.0,-4000.0,1149.0,-4000.0
574.0,72.0,-302.0,63.0,-4000.0,-4000.0,1149.0,-4000.0
303.0,-35.0,-188.0,251.0,-4000.0,-4000.0,1353.0,-3979.0
-47.0,-127.0,65.0,337.0,-4000.0,-3763.0,1786.0,-3976.0
-92.0,-94.0,337.0,320.0,-4000.0,-3453.0,1788.0,-3839.0
-74.0,-73.0,762.0,272.0,-4000.0,-4000.0,1628.0,-3527.0
-3.0,-38.0,1184.0,309.0,-4000.0,-4000.0,1704.0,-3451.0
12.0,-18.0,1152.0,244.0,-4000.0,-4000.0,1483.0,-2800.0
-55.0,30.0,703.0,61.0,-4000.0,-4000.0,1657.0,-2893.0
-150.0,93.0,492.0,-133.0,-4000.0,-2803.0,1996.0,-2682.0
-82.0,91.0,231.0,-323.0,-4000.0,-855.0,2297.0,-2179.0
-19.0,87.0,179.0,-226.0,-4000.0,299.0,2252.0,-1324.0
-88.0,60.0,438.0,-129.0,-4000.0,1204.0,1467.0,-1123.0
-81.0,72.0,598.0,-94.0,-4000.0,1388.0,1137.0,-1672.0
49.0,70.0,498.0,-178.0,-4000.0,1657.0,1313.0,-1469.0
204.0,85.0,69.0,-336.0,-4000.0,2629.0,1800.0,-360.0
640.0,124.0,60.0,-163.0,-4000.0,2953.0,2102.0,474.0
1450.0,64.0,28.0,-13.0,-4000.0,3199.0,1866.0,329.0
1572.0,15.0,-143.0,-83.0,-4000.0,2515.0,1602.0,-121.0
1476.0,-73.0,-165.0,-108.0,-4000.0,607.0,1378.0,-496.0
1181.0,-91.0,-416.0,-57.0,-4000.0,-1766.0,1158.0,-196.0
127.0,-75.0,-434.0,42.0,-4000.0,-3246.0,529.0,-380.0
-122.0,-57.0,-138.0,207.0,-4000.0,-3063.0,-167.0,-1208.0
-327.0,-26.0,56.0,186.0,-4000.0,-2921.0,-542.0,-1808.0
-599.0,-30.0,134.0,194.0,-4000.0,-2457.0,-867.0,-2912.0
-654.0,-12.0,89.0,246.0,-3923.0,-1647.0,-1917.0,-3904.0
-883.0,9.0,5.0,66.0,-3655.0,-750.0,-3407.0,-4000.0
-889.0,-13.0,-281.0,-95.0,-2369.0,-548.0,-3520.0,-4000.0
-1277.0,-52.0,-401.0,-103.0,-792.0,-1461.0,-2841.0,-3732.0
-1365.0,-37.0,-242.0,-174.0,618.0,-3051.0,-2120.0,-3581.0
-1105.0,11.0,-373.0,-357.0,3102.0,-4000.0,-1783.0,-3911.0
-784.0,122.0,-541.0,-301.0,4000.0,-4000.0,-2441.0,-3708.0
-409.0,184.0,-308.0,-62.0,4000.0,-4000.0,-3184.0,-2828.0
-515.0,120.0,163.0,103.0,4000.0,-4000.0,-3273.0,-1126.0
-628.0,49.0,349.0,207.0,4000.0,-4000.0,-2355.0,751.0
-288.0,41.0,299.0,179.0,4000.0,-4000.0,-579.0,2160.0
-209.0,10.0,337.0,161.0,4000.0,-4000.0,-32.0,3002.0
-255.0,-35.0,280.0,122.0,1930.0,-2154.0,-1608.0,3469.0
1.0,-33.0,101.0,41.0,1032.0,1254.0,-3662.0,4000.0
-175.0,-32.0,-102.0,-16.0,758.0,4000.0,-4000.0,4000.0
-599.0,-30.0,-226.0,-44.0,-261.0,4000.0,-4000.0,4000.0
-649.0,-48.0,-226.0,73.0,-1654.0,4000.0,-3968.0,4000.0
-440.0,-42.0,-265.0,16.0,-4000.0,4000.0,-3147.0,4000.0
68.0,24.0,-383.0,-224.0,-4000.0,3914.0,-2793.0,4000.0
725.0,67.0,-596.0,-487.0,-4000.0,3655.0,-2481.0,4000.0
2062.0,75.0,-669.0,-414.0,-4000.0,4000.0,-1887.0,4000.0
3265.0,99.0,-188.0,21.0,-4000.0,4000.0,-680.0,4000.0
2908.0,64.0,190.0,174.0,-3507.0,4000.0,-117.0,4000.0
1766.0,-38.0,89.0,134.0,-4000.0,4000.0,-994.0,4000.0
-147.0,-72.0,113.0,84.0,-4000.0,4000.0,-1767.0,3747.0
-1642.0,-23.0,333.0,-10.0,-3802.0,4000.0,-2404.0,3487.0
-527.0,-28.0,328.0,-28.0,-2870.0,4000.0,-2858.0,3275.0
1791.0,-76.0,-363.0,-86.0,-588.0,4000.0,-3000.0,3210.0
2132.0,-59.0,-781.0,5.0,1352.0,4000.0,-2923.0,2966.0
-253.0,-36.0,-687.0,99.0,3595.0,4000.0,-2353.0,2807.0
-1170.0,60.0,-781.0,130.0,4000.0,4000.0,-1783.0,2572.0
-1282.0,117.0,-798.0,189.0,4000.0,2035.0,-1358.0,2445.0
-1286.0,110.0,-532.0,290.0,4000.0,-1270.0,-1252.0,2835.0
-1069.0,47.0,288.0,406.0,4000.0,-4000.0,-1071.0,3340.0
-1022.0,27.0,857.0,425.0,4000.0,-4000.0,-672.0,3846.0
626.0,57.0,272.0,515.0,4000.0,-4000.0,-464.0,3741.0
4000.0,148.0,-562.0,524.0,4000.0,-4000.0,-711.0,3617.0
4000.0,251.0,-752.0,472.0,4000.0,-4000.0,-982.0,3910.0
340.0,251.0,-557.0,227.0,4000.0,-4000.0,-1187.0,3651.0
-2584.0,248.0,-290.0,-131.0,4000.0,-4000.0,-1600.0,2624.0
-4000.0,212.0,-134.0,-271.0,4000.0,-4000.0,-1702.0,1792.0
-4000.0,223.0,-230.0,-472.0,4000.0,-4000.0,-1728.0,795.0
-3554.0,124.0,-210.0,-633.0,4000.0,-4000.0,-1851.0,-245.0
-2708.0,-57.0,-182.0,-755.0,4000.0,-4000.0,-1791.0,-971.0
-1202.0,-234.0,-143.0,-735.0,4000.0,-4000.0,-1096.0,-1579.0
-1240.0,-393.0,321.0,-433.0,4000.0,-4000.0,-97.0,-1921.0
-757.0,-216.0,410.0,-162.0,-4000.0,-2819.0,999.0,-2176.0
-518.0,-83.0,225.0,-21.0,-4000.0,-262.0,1271.0,-2502.0
-443.0,-167.0,279.0,149.0,4000.0,2124.0,1149.0,-3308.0
-382.0,-176.0,95.0,272.0,4000.0,3680.0,2126.0,-3935.0
-23.0,-177.0,-25.0,337.0,-4000.0,4000.0,2749.0,-4000.0
870.0,10.0,219.0,406.0,-4000.0,4000.0,2255.0,-4000.0
530.0,251.0,524.0,337.0,-4000.0,4000.0,1801.0,-3516.0
524.0,341.0,318.0,128.0,-4000.0,4000.0,2956.0,-2228.0
408.0,201.0,32.0,-111.0,-4000.0,4000.0,4000.0,-1339.0
-136.0,-49.0,541.0,-357.0,-4000.0,4000.0,4000.0,-971.0
-575.0,-300.0,1178.0,-544.0,-4000.0,4000.0,4000.0,-1279.0
154.0,-534.0,26.0,-641.0,-4000.0,4000.0,4000.0,-1256.0
3330.0,-273.0,-1746.0,-611.0,-4000.0,4000.0,4000.0,-1245.0
4000.0,138.0,-2238.0,-362.0,-4000.0,4000.0,4000.0,-1330.0
4000.0,138.0,-1629.0,-11.0,-4000.0,4000.0,4000.0,-833.0
4000.0,-112.0,-425.0,93.0,-4000.0,4000.0,4000.0,119.0
4000.0,-205.0,532.0,-14.0,-4000.0,4000.0,4000.0,938.0
-719.0,-154.0,2194.0,-25.0,-4000.0,2812.0,4000.0,1077.0
-4000.0,-18.0,3202.0,67.0,-4000.0,191.0,4000.0,751.0
-4000.0,241.0,1835.0,152.0,-4000.0,-511.0,4000.0,-124.0
-4000.0,333.0,42.0,166.0,-1098.0,-1467.0,4000.0,-398.0
-4000.0,253.0,-1036.0,124.0,4000.0,-3518.0,4000.0,-222.0
-4000.0,106.0,-1849.0,54.0,4000.0,-3698.0,3917.0,-248.0
-3229.0,113.0,-1831.0,67.0,4000.0,-3453.0,-1233.0,-431.0
-2377.0,-84.0,-1081.0,91.0,4000.0,-3583.0,-4000.0,-399.0
-1170.0,-399.0,-651.0,139.0,4000.0,-3863.0,-4000.0,-422.0
-1261.0,-479.0,30.0,156.0,4000.0,-4000.0,-4000.0,-1709.0
351.0,-519.0,611.0,174.0,4000.0,-4000.0,-4000.0,-3970.0
4000.0,-317.0,152.0,161.0,4000.0,-4000.0,-4000.0,-4000.0
4000.0,-110.0,-271.0,140.0,4000.0,-4000.0,-4000.0,-4000.0
4000.0,95.0,152.0,205.0,4000.0,-4000.0,-4000.0,-3904.0
-301.0,160.0,455.0,197.0,4000.0,-4000.0,-4000.0,-1984.0
-4000.0,82.0,-311.0,164.0,4000.0,-4000.0,-4000.0,-228.0
-4000.0,-30.0,-1223.0,80.0,4000.0,-4000.0,-4000.0,1026.0
-4000.0,-22.0,-1616.0,49.0,4000.0,-4000.0,-4000.0,2835.0
-4000.0,55.0,-1732.0,46.0,3747.0,-4000.0,-4000.0,3716.0
-4000.0,8.0,-1527.0,2.0,3363.0,-4000.0,-4000.0,-10.0
-3850.0,105.0,-1128.0,50.0,4000.0,-3209.0,-4000.0,-4000.0
-2767.0,95.0,-403.0,118.0,4000.0,506.0,-4000.0,-4000.0
-1227.0,-33.0,92.0,34.0,4000.0,1292.0,-4000.0,-4000.0
-196.0,-87.0,337.0,-55.0,4000.0,-1747.0,-4000.0,-4000.0
1319.0,129.0,807.0,-137.0,4000.0,-4000.0,-4000.0,-4000.0
1441.0,363.0,1939.0,-68.0,4000.0,-4000.0,-4000.0,-4000.0
2328.0,477.0,2486.0,174.0,4000.0,-4000.0,-4000.0,-4000.0
3559.0,485.0,988.0,195.0,4000.0,-4000.0,-3662.0,-2977.0
4000.0,334.0,-173.0,103.0,4000.0,-3075.0,-2385.0,4000.0
4000.0,335.0,-672.0,-102.0,2630.0,3345.0,-1332.0,4000.0
3969.0,338.0,-346.0,-239.0,-4000.0,4000.0,-401.0,4000.0
3052.0,290.0,598.0,-155.0,-4000.0,4000.0,962.0,4000.0
1051.0,294.0,923.0,-52.0,-4000.0,4000.0,1905.0,4000.0
-1560.0,281.0,1184.0,-44.0,-4000.0,4000.0,2712.0,4000.0
-4000.0,29.0,807.0,-96.0,-4000.0,4000.0,3542.0,4000.0
-4000.0,-159.0,572.0,-163.0,-4000.0,4000.0,4000.0,4000.0
-2582.0,-244.0,720.0,-195.0,-4000.0,4000.0,4000.0,4000.0
235.0,-497.0,762.0,-171.0,-4000.0,4000.0,3298.0,4000.0
3041.0,-614.0,592.0,-155.0,-4000.0,4000.0,1906.0,4000.0
2809.0,-618.0,288.0,-67.0,-4000.0,4000.0,2826.0,4000.0
1124.0,-440.0,160.0,-49.0,-4000.0,4000.0,4000.0,4000.0
-518.0,-282.0,239.0,-61.0,4000.0,4000.0,4000.0,4000.0
-1096.0,-162.0,217.0,-4.0,4000.0,4000.0,4000.0,4000.0
-1886.0,63.0,89.0,16.0,4000.0,4000.0,4000.0,3796.0
-1801.0,173.0,-73.0,-1.0,4000.0,4000.0,4000.0,788.0
-1200.0,164.0,-110.0,-55.0,4000.0,4000.0,4000.0,-934.0
-545.0,72.0,50.0,-60.0,4000.0,2694.0,4000.0,120.0
15.0,-52.0,50.0,-63.0,4000.0,1092.0,4000.0,1639.0
-450.0,-160.0,496.0,-32.0,4000.0,-167.0,2058.0,-753.0
-437.0,-12.0,1414.0,99.0,4000.0,-146.0,-1291.0,-4000.0
-671.0,152.0,1243.0,146.0,4000.0,-123.0,-1950.0,-4000.0
-645.0,140.0,-252.0,7.0,4000.0,-362.0,-1637.0,-4000.0
56.0,145.0,-1166.0,-54.0,4000.0,743.0,167.0,-622.0
705.0,163.0,-1629.0,-3.0,4000.0,2319.0,236.0,2742.0
789.0,118.0,-1427.0,4.0,4000.0,1462.0,1208.0,4000.0
1221.0,73.0,-971.0,-4.0,4000.0,1071.0,918.0,4000.0
1541.0,47.0,-1227.0,-24.0,4000.0,693.0,805.0,4000.0
1637.0,-28.0,-971.0,-1.0,4000.0,-438.0,652.0,4000.0
2080.0,-11.0,-255.0,-13.0,4000.0,83.0,211.0,4000.0
1807.0,24.0,-48.0,-2.0,4000.0,-1814.0,283.0,2689.0
1059.0,91.0,-694.0,24.0,4000.0,-2974.0,548.0,-589.0
517.0,109.0,-841.0,-35.0,-1685.0,-1372.0,1274.0,-4000.0
755.0,69.0,7.0,-69.0,-4000.0,1279.0,1027.0,-4000.0
668.0,117.0,364.0,-51.0,-4000.0,2645.0,767.0,-4000.0
-81.0,182.0,337.0,30.0,-4000.0,1601.0,167.0,-4000.0
-388.0,162.0,349.0,110.0,-4000.0,1604.0,23.0,-4000.0
-560.0,99.0,33.0,-14.0,-4000.0,2515.0,-87.0,-4000.0
-736.0,10.0,-651.0,-184.0,-4000.0,3280.0,-151.0,-4000.0
-654.0,-125.0,-814.0,-188.0,4000.0,3361.0,-394.0,-4000.0
-428.0,-171.0,-669.0,-177.0,4000.0,1734.0,-967.0,-4000.0
-31.0,-212.0,-425.0,-103.0,4000.0,368.0,-1258.0,-4000.0
147.0,-227.0,-32.0,-110.0,4000.0,-194.0,-1551.0,-4000.0
133.0,-337.0,27.0,-94.0,4000.0,393.0,-1487.0,-4000.0
102.0,-456.0,31.0,-27.0,2889.0,2319.0,-1368.0,-4000.0
60.0,-369.0,-94.0,39.0,-4000.0,3426.0,-1054.0,-4000.0
102.0,-267.0,-28.0,347.0,-4000.0,4000.0,-722.0,-4000.0
-18.0,-176.0,124.0,392.0,-4000.0,4000.0,-412.0,-4000.0
-59.0,-118.0,215.0,-7.0,-4000.0,4000.0,-151.0,-4000.0
-1.0,-45.0,26.0,-174.0,-4000.0,2489.0,-53.0,-4000.0
-106.0,-71.0,-144.0,-211.0,3363.0,466.0,-82.0,-4000.0
-168.0,-64.0,-125.0,-283.0,2646.0,641.0,-214.0,-4000.0
-188.0,10.0,-158.0,-314.0,-262.0,-334.0,-355.0,-4000.0
-166.0,48.0,-45.0,-409.0,-4000.0,-1818.0,-555.0,-4000.0
-193.0,91.0,60.0,-224.0,-2368.0,-4000.0,-709.0,-4000.0
-209.0,115.0,512.0,-59.0,-1601.0,-4000.0,-940.0,-4000.0
-203.0,122.0,1243.0,-33.0,-857.0,-4000.0,-1181.0,-4000.0
-172.0,77.0,1509.0,2.0,4000.0,-4000.0,-1383.0,-4000.0
-119.0,95.0,793.0,-35.0,4000.0,-4000.0,-1497.0,-4000.0
-125.0,86.0,-91.0,39.0,4000.0,-4000.0,-1572.0,-2193.0
-180.0,21.0,-643.0,54.0,4000.0,-4000.0,-1635.0,2377.0
-123.0,93.0,-652.0,96.0,4000.0,-4000.0,-1570.0,4000.0
-99.0,122.0,-393.0,59.0,4000.0,-4000.0,-1441.0,4000.0
-105.0,151.0,-363.0,-104.0,4000.0,-4000.0,-1262.0,4000.0
-39.0,217.0,-139.0,-186.0,4000.0,-4000.0,-1116.0,4000.0
-90.0,182.0,93.0,-110.0,4000.0,-4000.0,-1054.0,4000.0
-66.0,160.0,219.0,-4.0,4000.0,-4000.0,-941.0,4000.0
-90.0,128.0,39.0,-40.0,4000.0,-4000.0,-675.0,4000.0
-112.0,120.0,20.0,60.0,4000.0,-4000.0,-485.0,4000.0
-107.0,128.0,-36.0,373.0,4000.0,-4000.0,-424.0,4000.0
-123.0,114.0,-160.0,429.0,4000.0,-4000.0,-377.0,4000.0
-96.0,87.0,-94.0,152.0,4000.0,-4000.0,-326.0,4000.0
-89.0,90.0,-66.0,-82.0,4000.0,-3518.0,-269.0,4000.0
-67.0,81.0,-64.0,-574.0,4000.0,-2510.0,-255.0,3458.0
-77.0,77.0,-70.0,-481.0,4000.0,-2534.0,-412.0,3458.0
-44.0,45.0,95.0,-187.0,4000.0,-1382.0,-418.0,3806.0
-77.0,0.0,93.0,-366.0,4000.0,-411.0,-304.0,4000.0
-54.0,-3.0,142.0,-131.0,4000.0,390.0,-255.0,4000.0
-42.0,-8.0,183.0,138.0,4000.0,693.0,-224.0,4000.0
-94.0,-7.0,157.0,303.0,4000.0,1051.0,-228.0,4000.0
-77.0,-21.0,130.0,418.0,4000.0,1518.0,-240.0,4000.0
-64.0,12.0,55.0,515.0,3527.0,2418.0,58.0,4000.0
-44.0,29.0,76.0,563.0,4000.0,3591.0,529.0,4000.0
-50.0,31.0,57.0,441.0,2308.0,3398.0,897.0,4000.0
-56.0,48.0,122.0,244.0,-999.0,2580.0,1280.0,4000.0
-49.0,28.0,118.0,207.0,-2598.0,2124.0,1705.0,4000.0
-33.0,21.0,55.0,209.0,-4000.0,1798.0,2190.0,4000.0
-46.0,21.0,79.0,81.0,-4000.0,636.0,2321.0,4000.0
-27.0,-1.0,52.0,16.0,-4000.0,16.0,2321.0,2496.0
-29.0,34.0,31.0,99.0,-4000.0,259.0,2375.0,-453.0
-21.0,170.0,28.0,126.0,-4000.0,-246.0,2514.0,-3138.0
-13.0,212.0,8.0,102.0,-4000.0,641.0,2712.0,-4000.0
-29.0,81.0,-24.0,577.0,-4000.0,1824.0,2631.0,-3649.0
7.0,29.0,-33.0,720.0,-4000.0,2353.0,2425.0,-2187.0
-30.0,89.0,-26.0,-328.0,-4000.0,1991.0,2309.0,-1655.0
-23.0,86.0,-36.0,-1109.0,-4000.0,1059.0,2364.0,-1957.0
25.0,-38.0,-99.0,-1419.0,-4000.0,701.0,2426.0,-3734.0
39.0,-155.0,-125.0,-1463.0,-4000.0,394.0,2552.0,-4000.0
42.0,-163.0,-129.0,-950.0,-4000.0,361.0,2449.0,-4000.0
27.0,-176.0,-139.0,-659.0,-4000.0,-79.0,2061.0,-4000.0
-3.0,-244.0,-45.0,-232.0,-3833.0,-23.0,1723.0,-4000.0
-16.0,-411.0,2.0,-18.0,1656.0,427.0,1593.0,-4000.0
-58.0,-458.0,7.0,220.0,3534.0,880.0,1670.0,-4000.0
-122.0,-330.0,32.0,217.0,2060.0,986.0,1605.0,-4000.0
-105.0,-167.0,11.0,-220.0,-1247.0,722.0,1399.0,-4000.0
-86.0,-113.0,0.0,90.0,-4000.0,641.0,832.0,-4000.0
-16.0,-393.0,23.0,459.0,-4000.0,327.0,380.0,-4000.0
44.0,-454.0,0.0,584.0,-4000.0,274.0,1.0,-4000.0
-27.0,-360.0,-53.0,685.0,-4000.0,221.0,-408.0,-4000.0
-45.0,-364.0,-38.0,687.0,-4000.0,200.0,-772.0,-3593.0
24.0,-146.0,-49.0,533.0,-4000.0,100.0,-1169.0,4000.0
50.0,40.0,-104.0,194.0,-4000.0,137.0,-1184.0,4000.0
37.0,70.0,-115.0,-308.0,-4000.0,319.0,-1382.0,4000.0
37.0,-15.0,-68.0,-906.0,-4000.0,439.0,-1605.0,4000.0
49.0,18.0,-33.0,-1021.0,-4000.0,613.0,-1832.0,4000.0
66.0,164.0,-14.0,-586.0,-4000.0,641.0,-2064.0,4000.0
48.0,329.0,33.0,-91.0,-4000.0,805.0,-2158.0,4000.0
28.0,353.0,77.0,538.0,-4000.0,748.0,-2317.0,4000.0
-28.0,341.0,53.0,767.0,-3185.0,641.0,-2302.0,4000.0
-3.0,384.0,20.0,610.0,285.0,778.0,-2273.0,3275.0
27.0,276.0,43.0,431.0,2618.0,953.0,-2180.0,-140.0
-14.0,176.0,76.0,435.0,3541.0,1012.0,-2251.0,-3649.0
19.0,151.0,70.0,484.0,3020.0,953.0,-2408.0,-4000.0
60.0,217.0,52.0,242.0,3772.0,809.0,-2418.0,-4000.0
54.0,225.0,0.0,-26.0,4000.0,701.0,-2340.0,-4000.0
39.0,229.0,-37.0,-140.0,4000.0,683.0,-2158.0,-4000.0
25.0,238.0,-47.0,-30.0,4000.0,687.0,-1979.0,-4000.0
20.0,258.0,-41.0,-81.0,4000.0,987.0,-1819.0,-4000.0
20.0,365.0,31.0,-123.0,4000.0,1157.0,-1670.0,-4000.0
52.0,290.0,16.0,-149.0,4000.0,1207.0,-1527.0,-4000.0
53.0,248.0,20.0,-106.0,4000.0,1189.0,-1462.0,-4000.0
65.0,304.0,13.0,-41.0,3204.0,1117.0,-1227.0,-4000.0
85.0,278.0,-15.0,-126.0,1824.0,1157.0,-1011.0,-4000.0
24.0,157.0,-20.0,-391.0,202.0,1018.0,-794.0,-4000.0
44.0,-287.0,-46.0,-568.0,-2043.0,896.0,-596.0,-4000.0
51.0,-757.0,-34.0,-556.0,-4000.0,856.0,-565.0,-4000.0
-1.0,-928.0,-57.0,-650.0,-4000.0,870.0,-383.0,-3926.0
-26.0,-895.0,-107.0,-745.0,-4000.0,880.0,-91.0,-1644.0
-36.0,-497.0,-106.0,-1093.0,-4000.0,802.0,170.0,-401.0
-14.0,-275.0,-89.0,-920.0,-4000.0,749.0,355.0,267.0
7.0,-209.0,-56.0,-247.0,-4000.0,749.0,486.0,-508.0
12.0,79.0,12.0,341.0,-4000.0,685.0,616.0,-696.0
-3.0,443.0,40.0,864.0,-4000.0,628.0,753.0,261.0
34.0,664.0,73.0,1104.0,-4000.0,693.0,801.0,1026.0
37.0,435.0,50.0,1241.0,-4000.0,620.0,921.0,2422.0
15.0,282.0,-50.0,1086.0,-4000.0,613.0,1060.0,2283.0
21.0,57.0,-78.0,1175.0,-4000.0,616.0,1143.0,1663.0
20.0,-130.0,-56.0,1566.0,-4000.0,576.0,1206.0,927.0
44.0,-182.0,-22.0,1013.0,-4000.0,576.0,1214.0,163.0
56.0,-11.0,17.0,-38.0,-4000.0,563.0,1248.0,-599.0
82.0,158.0,9.0,-540.0,-4000.0,510.0,1223.0,-92.0
73.0,-196.0,-14.0,-849.0,-4000.0,471.0,1264.0,1077.0
37.0,-345.0,30.0,-1096.0,-4000.0,463.0,1270.0,1004.0
41.0,-533.0,26.0,-800.0,-4000.0,380.0,1267.0,1763.0
4.0,-509.0,66.0,-290.0,-3802.0,254.0,1214.0,2313.0
-63.0,-358.0,107.0,-219.0,-2389.0,113.0,1092.0,2677.0
-80.0,-219.0,92.0,-312.0,-82.0,66.0,1013.0,3593.0
-58.0,38.0,88.0,-186.0,3464.0,-30.0,989.0,4000.0
16.0,132.0,88.0,-168.0,4000.0,-129.0,942.0,4000.0
187.0,254.0,81.0,-170.0,4000.0,-87.0,824.0,4000.0
804.0,371.0,37.0,-155.0,4000.0,-75.0,782.0,4000.0
1433.0,514.0,67.0,-80.0,4000.0,11.0,681.0,4000.0
833.0,512.0,71.0,51.0,4000.0,13.0,548.0,4000.0
-211.0,443.0,95.0,69.0,4000.0,-3.0,441.0,4000.0
-645.0,359.0,135.0,207.0,4000.0,71.0,412.0,4000.0
-850.0,371.0,89.0,210.0,4000.0,41.0,410.0,4000.0
-698.0,347.0,42.0,51.0,4000.0,30.0,374.0,4000.0
-284.0,235.0,21.0,49.0,4000.0,13.0,321.0,4000.0
514.0,172.0,7.0,62.0,4000.0,-37.0,168.0,4000.0
1222.0,98.0,6.0,29.0,4000.0,-102.0,203.0,4000.0
457.0,132.0,9.0,-106.0,4000.0,-394.0,359.0,4000.0
-453.0,136.0,-36.0,-106.0,4000.0,-1035.0,390.0,4000.0
-1001.0,60.0,14.0,-35.0,4000.0,-1135.0,352.0,3226.0
-957.0,40.0,17.0,-125.0,4000.0,-716.0,376.0,-419.0
141.0,57.0,-16.0,-74.0,4000.0,-485.0,343.0,-1038.0
78.0,-22.0,6.0,-48.0,4000.0,-354.0,343.0,-791.0
-582.0,-132.0,-52.0,-111.0,4000.0,-175.0,677.0,-2995.0
-1235.0,-212.0,-64.0,-95.0,4000.0,-94.0,920.0,-4000.0
-1704.0,-224.0,-63.0,-78.0,4000.0,-156.0,999.0,-3708.0
-1202.0,-224.0,-120.0,-122.0,4000.0,-82.0,779.0,-3824.0
-935.0,-318.0,-250.0,-157.0,823.0,-428.0,254.0,-4000.0
-502.0,-306.0,-259.0,-97.0,-4000.0,-663.0,297.0,-4000.0
-266.0,-310.0,-181.0,-28.0,-4000.0,-763.0,603.0,-4000.0
-274.0,-261.0,-165.0,-49.0,-4000.0,-939.0,749.0,-4000.0
-2.0,-105.0,-121.0,-39.0,-4000.0,-722.0,1092.0,-4000.0
260.0,-215.0,-132.0,-57.0,-4000.0,-665.0,858.0,-4000.0
447.0,-418.0,-146.0,-90.0,-4000.0,-541.0,359.0,-4000.0
249.0,-437.0,-137.0,-65.0,-4000.0,-394.0,562.0,-4000.0
192.0,-418.0,-198.0,-38.0,-4000.0,-439.0,431.0,-4000.0
174.0,-353.0,-216.0,60.0,-4000.0,-565.0,349.0,-4000.0
447.0,-253.0,-174.0,81.0,-4000.0,-529.0,256.0,-4000.0
1189.0,-174.0,-121.0,42.0,-4000.0,-249.0,-433.0,-4000.0
1081.0,-73.0,-79.0,41.0,-4000.0,-59.0,-420.0,-4000.0
113.0,-44.0,-33.0,32.0,-4000.0,109.0,-565.0,-3732.0
-620.0,-55.0,-12.0,54.0,-4000.0,268.0,-750.0,-2783.0
-909.0,12.0,2.0,-8.0,-4000.0,374.0,-849.0,-3057.0
-254.0,113.0,20.0,-145.0,-4000.0,526.0,-1252.0,-2872.0
908.0,162.0,46.0,-433.0,-4000.0,477.0,-1071.0,-2694.0
516.0,200.0,93.0,-584.0,-4000.0,327.0,-1162.0,-3192.0
-348.0,173.0,107.0,-312.0,-4000.0,495.0,-1716.0,-3610.0
-712.0,148.0,92.0,-34.0,-4000.0,742.0,-1488.0,-4000.0
-1346.0,155.0,27.0,128.0,-4000.0,994.0,-1312.0,-4000.0
-1567.0,103.0,-92.0,132.0,-4000.0,961.0,-1918.0,-4000.0
-2127.0,94.0,-83.0,185.0,-4000.0,1077.0,-1765.0,-4000.0
-1698.0,63.0,3.0,377.0,-3083.0,1344.0,-1684.0,-4000.0
-599.0,1.0,-2.0,329.0,-1170.0,1148.0,-2093.0,-4000.0
-215.0,46.0,24.0,138.0,-55.0,1258.0,-2158.0,-4000.0
86.0,52.0,31.0,-91.0,896.0,1601.0,-2337.0,-4000.0
77.0,52.0,-43.0,-188.0,2124.0,1539.0,-2146.0,-4000.0
277.0,89.0,-18.0,-90.0,2889.0,1474.0,-1832.0,-4000.0
263.0,80.0,23.0,-2.0,3606.0,2060.0,-1497.0,-4000.0
255.0,73.0,32.0,-12.0,4000.0,2316.0,-941.0,-4000.0
424.0,77.0,66.0,45.0,4000.0,2124.0,-750.0,-4000.0
408.0,62.0,92.0,87.0,4000.0,2125.0,-1006.0,-4000.0
379.0,49.0,105.0,134.0,4000.0,1917.0,-743.0,-4000.0
321.0,44.0,76.0,301.0,4000.0,961.0,-345.0,-4000.0
366.0,40.0,28.0,158.0,4000.0,-416.0,-195.0,-4000.0
368.0,51.0,34.0,-36.0,3599.0,-1850.0,-117.0,-4000.0
310.0,31.0,73.0,-165.0,3595.0,-3879.0,-46.0,-4000.0
241.0,31.0,68.0,-293.0,4000.0,-4000.0,196.0,-4000.0
161.0,28.0,31.0,-446.0,4000.0,-4000.0,82.0,-3480.0
35.0,43.0,18.0,-444.0,4000.0,-4000.0,-344.0,-1860.0
6.0,38.0,37.0,-106.0,4000.0,-4000.0,-412.0,-6.0
15.0,34.0,47.0,44.0,4000.0,-4000.0,-56.0,1663.0
88.0,47.0,64.0,264.0,4000.0,-4000.0,414.0,3487.0
90.0,41.0,38.0,276.0,4000.0,-4000.0,875.0,4000.0
68.0,36.0,-37.0,190.0,4000.0,-3722.0,779.0,4000.0
134.0,11.0,20.0,290.0,4000.0,-2773.0,441.0,4000.0
163.0,47.0,76.0,524.0,4000.0,-1799.0,262.0,4000.0
168.0,79.0,95.0,642.0,4000.0,-849.0,338.0,4000.0
155.0,115.0,142.0,292.0,4000.0,58.0,571.0,4000.0
227.0,111.0,107.0,193.0,4000.0,706.0,812.0,4000.0
243.0,93.0,85.0,337.0,4000.0,1142.0,867.0,4000.0
250.0,110.0,17.0,276.0,4000.0,1669.0,349.0,4000.0
264.0,91.0,-6.0,-125.0,4000.0,2019.0,-195.0,4000.0
322.0,158.0,-1.0,-503.0,4000.0,2363.0,-511.0,4000.0
382.0,227.0,-49.0,-584.0,4000.0,2515.0,-131.0,4000.0
353.0,222.0,-43.0,-437.0,4000.0,2577.0,563.0,4000.0
340.0,193.0,-49.0,-495.0,4000.0,2694.0,903.0,4000.0
305.0,115.0,-8.0,-613.0,4000.0,2512.0,818.0,4000.0
220.0,-40.0,12.0,-462.0,4000.0,2373.0,598.0,4000.0
77.0,-264.0,65.0,-188.0,4000.0,2319.0,533.0,4000.0
51.0,-360.0,190.0,162.0,4000.0,2060.0,492.0,4000.0
136.0,-379.0,253.0,356.0,4000.0,1861.0,673.0,4000.0
89.0,-405.0,195.0,341.0,4000.0,1905.0,767.0,4000.0
89.0,-282.0,61.0,168.0,4000.0,1785.0,832.0,4000.0
169.0,-143.0,-36.0,36.0,4000.0,1451.0,702.0,4000.0
155.0,-52.0,-200.0,-15.0,4000.0,1287.0,404.0,4000.0
103.0,-53.0,-389.0,-100.0,4000.0,1507.0,401.0,4000.0
105.0,-47.0,-413.0,-40.0,4000.0,1533.0,1223.0,4000.0
190.0,132.0,-245.0,60.0,4000.0,1163.0,1902.0,4000.0
157.0,216.0,-52.0,227.0,4000.0,858.0,1769.0,4000.0
129.0,150.0,-122.0,171.0,4000.0,766.0,1270.0,4000.0
98.0,108.0,-214.0,-159.0,4000.0,746.0,1076.0,4000.0
68.0,93.0,-83.0,-255.0,4000.0,489.0,1693.0,4000.0
204.0,152.0,-7.0,-291.0,3201.0,384.0,1840.0,4000.0
138.0,117.0,55.0,-586.0,2439.0,527.0,2061.0,3721.0
89.0,44.0,119.0,-572.0,1995.0,432.0,1854.0,1859.0
137.0,75.0,140.0,-140.0,1592.0,256.0,738.0,312.0
131.0,27.0,166.0,38.0,1352.0,236.0,604.0,-1078.0
137.0,-35.0,160.0,149.0,731.0,471.0,1264.0,-1904.0
45.0,-91.0,125.0,181.0,1352.0,411.0,1605.0,-2165.0
-87.0,-181.0,115.0,347.0,2048.0,311.0,1341.0,-2556.0
-175.0,-226.0,206.0,371.0,2060.0,183.0,380.0,-2797.0
-50.0,-72.0,288.0,209.0,2354.0,167.0,-412.0,-2556.0
-13.0,74.0,180.0,187.0,2308.0,339.0,-82.0,-2425.0
133.0,25.0,43.0,-72.0,2513.0,-155.0,587.0,-2873.0
497.0,127.0,-39.0,-45.0,2578.0,-620.0,-135.0,-3203.0
408.0,205.0,-84.0,84.0,2060.0,-663.0,-1291.0,-2959.0
298.0,197.0,-123.0,61.0,1201.0,-546.0,-1608.0,-2735.0
381.0,197.0,-320.0,9.0,196.0,-455.0,-2311.0,-2302.0
204.0,99.0,-270.0,-14.0,-902.0,-255.0,-3131.0,-2063.0
20.0,-54.0,70.0,-16.0,-1737.0,21.0,-3837.0,-1860.0
-241.0,-183.0,113.0,-293.0,-2561.0,207.0,-4000.0,-2088.0
-327.0,-131.0,-111.0,-397.0,-3445.0,439.0,-4000.0,-3138.0
-201.0,-95.0,-168.0,-346.0,-4000.0,159.0,-4000.0,-4000.0
-243.0,-52.0,-253.0,-316.0,-4000.0,-362.0,-4000.0,-4000.0
-266.0,-99.0,-440.0,-243.0,-4000.0,-244.0,-4000.0,-4000.0
-85.0,-209.0,-215.0,-78.0,-4000.0,50.0,-4000.0,-4000.0
929.0,-144.0,85.0,76.0,-4000.0,284.0,-4000.0,-4000.0
2157.0,-271.0,695.0,69.0,-4000.0,56.0,-4000.0,-4000.0
1384.0,-375.0,1163.0,-33.0,-4000.0,-456.0,-4000.0,-4000.0
24.0,-354.0,450.0,-185.0,-4000.0,-472.0,-4000.0,-4000.0
-756.0,-455.0,-473.0,-251.0,-4000.0,-729.0,-3837.0,-4000.0
-1540.0,-505.0,-694.0,-218.0,-4000.0,-737.0,-3843.0,-4000.0
-893.0,-328.0,-637.0,-171.0,-4000.0,-613.0,-4000.0,-4000.0
-418.0,-73.0,-670.0,-153.0,-4000.0,-685.0,-4000.0,-4000.0
-649.0,68.0,-252.0,92.0,-4000.0,-607.0,-4000.0,-4000.0
-628.0,91.0,77.0,270.0,-4000.0,-507.0,-4000.0,-4000.0
-1019.0,87.0,169.0,363.0,-4000.0,-251.0,-4000.0,-4000.0
-1045.0,233.0,345.0,364.0,-4000.0,-468.0,-4000.0,-4000.0
-974.0,319.0,533.0,351.0,-4000.0,-482.0,-4000.0,-4000.0
-880.0,290.0,1119.0,393.0,-4000.0,-340.0,-4000.0,-3256.0
-255.0,254.0,1674.0,205.0,-4000.0,-743.0,-4000.0,4000.0
1025.0,188.0,1503.0,2.0,-4000.0,-1364.0,-4000.0,4000.0
2393.0,173.0,722.0,-241.0,-4000.0,-1396.0,-3366.0,4000.0
1959.0,117.0,-2.0,-375.0,-4000.0,-1200.0,-4000.0,4000.0
847.0,-5.0,-541.0,-387.0,-4000.0,-1688.0,-4000.0,4000.0
-153.0,-56.0,-450.0,-393.0,-4000.0,-1651.0,-4000.0,4000.0
-1365.0,-34.0,931.0,-193.0,-4000.0,-897.0,-4000.0,4000.0
-1619.0,3.0,1962.0,-61.0,-4000.0,-7.0,-4000.0,4000.0
-1110.0,40.0,852.0,-107.0,-4000.0,837.0,-4000.0,4000.0
208.0,172.0,-1492.0,23.0,-4000.0,1539.0,-4000.0,4000.0
556.0,282.0,-3758.0,149.0,-4000.0,1854.0,-4000.0,4000.0
-352.0,327.0,-4000.0,182.0,-4000.0,1864.0,-4000.0,2689.0
-584.0,437.0,-2964.0,189.0,-4000.0,1840.0,-4000.0,1247.0
-799.0,355.0,-1758.0,206.0,-4000.0,1786.0,1731.0,281.0
-824.0,262.0,-645.0,320.0,-4000.0,1917.0,4000.0,-704.0
-637.0,201.0,386.0,538.0,-4000.0,2490.0,4000.0,-744.0
78.0,89.0,2276.0,708.0,-4000.0,3361.0,4000.0,-1697.0
543.0,141.0,2408.0,532.0,-4000.0,4000.0,4000.0,-1279.0
446.0,182.0,686.0,366.0,-4000.0,4000.0,4000.0,2054.0
465.0,207.0,-94.0,351.0,-4000.0,4000.0,4000.0,4000.0
64.0,112.0,-346.0,155.0,-4000.0,4000.0,616.0,1989.0
40.0,-21.0,728.0,-73.0,-4000.0,4000.0,-4000.0,2172.0
110.0,-35.0,764.0,-127.0,-4000.0,4000.0,4000.0,4000.0
863.0,-69.0,-959.0,-143.0,-4000.0,4000.0,4000.0,4000.0
2258.0,-28.0,-1292.0,3.0,-3237.0,4000.0,4000.0,4000.0
1572.0,22.0,-963.0,84.0,3592.0,3202.0,4000.0,2550.0
332.0,-32.0,-356.0,18.0,4000.0,2515.0,4000.0,-796.0
-112.0,-75.0,663.0,113.0,4000.0,1775.0,4000.0,-4000.0
-909.0,-77.0,2199.0,-26.0,4000.0,888.0,4000.0,-4000.0
-1105.0,-80.0,2289.0,-201.0,4000.0,-125.0,4000.0,-4000.0
-645.0,70.0,166.0,-446.0,4000.0,-1396.0,4000.0,-4000.0
-144.0,130.0,-1288.0,-589.0,4000.0,-2648.0,4000.0,-4000.0
27.0,-3.0,-1613.0,-375.0,4000.0,-4000.0,4000.0,-4000.0
265.0,25.0,-1683.0,-393.0,4000.0,-4000.0,3333.0,-4000.0
351.0,-65.0,-1476.0,-478.0,-4000.0,-4000.0,-3171.0,-4000.0
-327.0,-354.0,-1106.0,-187.0,-4000.0,-4000.0,-4000.0,-4000.0
-1071.0,-501.0,-847.0,87.0,-4000.0,-4000.0,-3082.0,-4000.0
-1280.0,-466.0,-297.0,77.0,-4000.0,-4000.0,-774.0,-3439.0
-953.0,-391.0,56.0,101.0,-4000.0,-3919.0,-546.0,-4000.0
-750.0,-314.0,246.0,91.0,-4000.0,-3258.0,160.0,-4000.0
-164.0,-224.0,1544.0,142.0,-4000.0,-2547.0,628.0,-4000.0
220.0,-231.0,3096.0,236.0,3916.0,-1943.0,2684.0,-4000.0
530.0,-199.0,3380.0,150.0,4000.0,-920.0,3773.0,-4000.0
1246.0,-50.0,2277.0,182.0,4000.0,-177.0,2290.0,-4000.0
2015.0,34.0,911.0,187.0,4000.0,191.0,78.0,-4000.0
2471.0,113.0,1757.0,4.0,-4000.0,160.0,-833.0,-4000.0
1637.0,108.0,4000.0,-351.0,-4000.0,163.0,-475.0,-4000.0
166.0,-2.0,4000.0,-336.0,4000.0,31.0,-258.0,-4000.0
-474.0,-56.0,-219.0,-143.0,4000.0,-685.0,177.0,-4000.0
-893.0,-170.0,-4000.0,-397.0,4000.0,-2608.0,256.0,-4000.0
-1170.0,-218.0,-4000.0,-527.0,4000.0,-4000.0,81.0,-4000.0
-771.0,-214.0,-4000.0,-560.0,4000.0,-4000.0,248.0,-4000.0
-714.0,-137.0,-3952.0,-580.0,-4000.0,-4000.0,968.0,-4000.0
-641.0,11.0,-3472.0,-488.0,-4000.0,-4000.0,1406.0,-4000.0
-844.0,15.0,-2123.0,-220.0,4000.0,-4000.0,3559.0,-4000.0
-784.0,38.0,-866.0,-28.0,4000.0,-4000.0,4000.0,-4000.0
-392.0,144.0,-138.0,158.0,4000.0,-4000.0,4000.0,-4000.0
-331.0,200.0,-470.0,323.0,4000.0,-4000.0,4000.0,-144.0
-69.0,195.0,-1321.0,156.0,4000.0,-4000.0,4000.0,4000.0
228.0,189.0,-466.0,177.0,4000.0,-4000.0,4000.0,4000.0
652.0,176.0,546.0,467.0,4000.0,-4000.0,4000.0,4000.0
583.0,256.0,1822.0,467.0,4000.0,-415.0,3624.0,4000.0
250.0,309.0,2421.0,215.0,4000.0,3148.0,1723.0,4000.0
332.0,328.0,1965.0,46.0,4000.0,4000.0,363.0,4000.0
441.0,394.0,1249.0,-16.0,4000.0,4000.0,-986.0,4000.0
471.0,359.0,1192.0,109.0,4000.0,4000.0,-2740.0,4000.0
673.0,248.0,2129.0,270.0,4000.0,3007.0,-3766.0,4000.0
640.0,150.0,1835.0,215.0,4000.0,-435.0,-4000.0,4000.0
705.0,134.0,651.0,195.0,4000.0,-1766.0,-4000.0,3552.0
811.0,103.0,113.0,256.0,-1333.0,-1251.0,-4000.0,-650.0
172.0,115.0,-279.0,256.0,-4000.0,210.0,-4000.0,1651.0
-396.0,46.0,-69.0,217.0,-4000.0,2888.0,-4000.0,2183.0
-960.0,-47.0,210.0,158.0,-4000.0,4000.0,-4000.0,680.0
-889.0,-96.0,439.0,69.0,-4000.0,4000.0,-4000.0,700.0
-712.0,-156.0,1094.0,-79.0,-4000.0,4000.0,-4000.0,1338.0
-677.0,-176.0,692.0,-318.0,1395.0,4000.0,-4000.0,2689.0
-182.0,-200.0,1152.0,-417.0,4000.0,4000.0,-4000.0,2937.0
104.0,-226.0,3380.0,-523.0,4000.0,4000.0,-4000.0,1446.0
204.0,-220.0,3871.0,-556.0,4000.0,4000.0,-4000.0,-397.0
559.0,-190.0,1739.0,-352.0,4000.0,4000.0,-4000.0,-2722.0
2015.0,-151.0,1168.0,-224.0,4000.0,4000.0,-4000.0,-4000.0
2392.0,-65.0,2730.0,-162.0,4000.0,4000.0,-4000.0,-4000.0
495.0,0.0,566.0,-59.0,4000.0,4000.0,-4000.0,-4000.0
-1031.0,33.0,-2424.0,59.0,4000.0,4000.0,-4000.0,-4000.0
-1735.0,50.0,-269.0,67.0,4000.0,535.0,-4000.0,-4000.0
-1815.0,46.0,2746.0,77.0,-3803.0,-4000.0,-4000.0,-3138.0
-1337.0,50.0,1571.0,53.0,-4000.0,-4000.0,-4000.0,-801.0
-1105.0,13.0,-2964.0,-4.0,-4000.0,-4000.0,-4000.0,2437.0
-962.0,-48.0,-4000.0,18.0,-4000.0,-4000.0,-4000.0,3014.0
-481.0,-78.0,-4000.0,39.0,-4000.0,-4000.0,-4000.0,4000.0
-127.0,-84.0,-4000.0,142.0,-4000.0,-4000.0,-3882.0,4000.0
-339.0,-36.0,-4000.0,238.0,-4000.0,-4000.0,-3866.0,4000.0
-730.0,-50.0,-4000.0,129.0,-4000.0,-4000.0,-3497.0,4000.0
-1152.0,-27.0,-1881.0,107.0,-4000.0,4000.0,-3131.0,4000.0
-841.0,83.0,-996.0,310.0,-4000.0,4000.0,-3106.0,4000.0
-476.0,78.0,-1492.0,459.0,-4000.0,4000.0,-3700.0,4000.0
-138.0,83.0,-1016.0,320.0,-4000.0,4000.0,-4000.0,4000.0
412.0,64.0,-617.0,71.0,-4000.0,4000.0,-4000.0,2901.0
378.0,24.0,-450.0,-102.0,-4000.0,4000.0,-4000.0,2237.0
163.0,48.0,-16.0,-80.0,-4000.0,4000.0,-4000.0,4000.0
243.0,64.0,785.0,5.0,-4000.0,4000.0,-4000.0,4000.0
755.0,57.0,1197.0,18.0,-4000.0,4000.0,-4000.0,4000.0
660.0,45.0,858.0,-45.0,-4000.0,4000.0,-4000.0,4000.0
145.0,63.0,269.0,-55.0,-4000.0,4000.0,-4000.0,3588.0
-76.0,57.0,1452.0,-47.0,-4000.0,2753.0,-4000.0,2835.0
-229.0,51.0,4000.0,-48.0,-3838.0,-2061.0,-4000.0,2314.0
-211.0,19.0,4000.0,47.0,-1228.0,-4000.0,-4000.0,2.0
-77.0,7.0,4000.0,34.0,635.0,-4000.0,-4000.0,-2164.0
159.0,4.0,1822.0,-12.0,1009.0,-4000.0,-4000.0,-3198.0
281.0,-17.0,-536.0,-55.0,-460.0,-4000.0,-4000.0,-3844.0
422.0,-45.0,-1019.0,-7.0,-3327.0,-4000.0,-4000.0,-2276.0
908.0,-103.0,-1944.0,-35.0,-4000.0,-4000.0,-4000.0,-1891.0
1216.0,-111.0,-1427.0,-188.0,-2794.0,-4000.0,-4000.0,-3073.0
798.0,-106.0,-943.0,-177.0,1198.0,-4000.0,-4000.0,-4000.0
477.0,-125.0,-271.0,-179.0,1865.0,-4000.0,-3638.0,-4000.0
212.0,-102.0,2715.0,-220.0,553.0,-4000.0,-2465.0,-4000.0
-105.0,-73.0,4000.0,-328.0,-1052.0,-4000.0,-1755.0,-4000.0
-168.0,-73.0,1574.0,-438.0,-1031.0,-4000.0,-1961.0,-4000.0
-320.0,-59.0,-198.0,-352.0,815.0,-33.0,-3581.0,-4000.0
-331.0,-63.0,-906.0,10.0,3989.0,4000.0,-4000.0,-4000.0
-361.0,-76.0,-1085.0,451.0,4000.0,4000.0,-4000.0,-4000.0
-354.0,-93.0,-338.0,347.0,4000.0,4000.0,-4000.0,-4000.0
-380.0,-96.0,-1638.0,31.0,4000.0,4000.0,-4000.0,-4000.0
-396.0,-42.0,-1682.0,-171.0,4000.0,4000.0,-4000.0,-4000.0
-191.0,-26.0,-1041.0,-251.0,4000.0,4000.0,-4000.0,-4000.0
-61.0,11.0,-478.0,-161.0,4000.0,4000.0,-4000.0,-4000.0
5.0,63.0,89.0,-143.0,4000.0,4000.0,-2740.0,-2478.0
25.0,101.0,455.0,-42.0,4000.0,4000.0,4000.0,-3113.0
126.0,122.0,629.0,2.0,4000.0,4000.0,4000.0,-1104.0
168.0,138.0,236.0,-101.0,4000.0,-875.0,4000.0,1842.0
134.0,159.0,354.0,-60.0,4000.0,-3079.0,4000.0,1867.0
204.0,125.0,299.0,-133.0,4000.0,-4000.0,4000.0,2183.0
210.0,89.0,231.0,-487.0,4000.0,-3014.0,4000.0,3002.0
209.0,82.0,39.0,-614.0,4000.0,-1915.0,4000.0,2901.0
180.0,90.0,129.0,-253.0,4000.0,-186.0,4000.0,474.0
149.0,99.0,101.0,209.0,4000.0,1604.0,4000.0,-753.0
155.0,103.0,296.0,488.0,4000.0,2710.0,4000.0,-1339.0
133.0,74.0,541.0,988.0,3529.0,2824.0,4000.0,-4000.0
104.0,45.0,495.0,923.0,3410.0,2189.0,4000.0,-4000.0
107.0,41.0,754.0,-39.0,3476.0,1395.0,4000.0,-4000.0
107.0,-10.0,611.0,-702.0,4000.0,415.0,4000.0,-4000.0
72.0,-49.0,546.0,-1075.0,4000.0,-262.0,4000.0,-4000.0
68.0,-30.0,501.0,-1096.0,4000.0,-838.0,4000.0,-4000.0
-5.0,-36.0,449.0,-886.0,4000.0,-1140.0,4000.0,-2218.0
-101.0,-26.0,427.0,-515.0,2941.0,-1896.0,4000.0,-1984.0
-112.0,-24.0,385.0,-106.0,1213.0,-2725.0,4000.0,-953.0
-88.0,-20.0,301.0,150.0,-131.0,-3441.0,4000.0,392.0
-78.0,-17.0,166.0,376.0,-1552.0,-3978.0,4000.0,1399.0
-48.0,-42.0,94.0,524.0,-2660.0,-4000.0,4000.0,2754.0
-52.0,-53.0,-25.0,780.0,-3327.0,-4000.0,4000.0,4000.0
-69.0,-86.0,-89.0,900.0,-4000.0,-4000.0,3745.0,4000.0
15.0,-59.0,-167.0,829.0,-4000.0,-4000.0,3860.0,4000.0
190.0,-50.0,-194.0,581.0,-4000.0,-4000.0,3683.0,4000.0
210.0,-41.0,-285.0,292.0,-4000.0,-4000.0,2255.0,4000.0
-46.0,-12.0,-282.0,335.0,-4000.0,-4000.0,-50.0,2742.0
-234.0,-49.0,-217.0,590.0,-4000.0,-4000.0,-2211.0,-536.0
-225.0,-24.0,-190.0,598.0,-3315.0,-4000.0,-4000.0,-2930.0
-134.0,7.0,-157.0,174.0,-2611.0,-4000.0,-4000.0,-4000.0
-76.0,6.0,-167.0,-61.0,-1888.0,-4000.0,-4000.0,-4000.0
-78.0,-31.0,-161.0,-393.0,-686.0,-4000.0,-4000.0,-824.0
-33.0,-52.0,-169.0,-724.0,831.0,-4000.0,-4000.0,4000.0
-110.0,-56.0,-133.0,-560.0,1930.0,-4000.0,-4000.0,4000.0
-119.0,-74.0,-153.0,-279.0,2813.0,-4000.0,-4000.0,4000.0
-112.0,-34.0,-150.0,-161.0,3982.0,-4000.0,-4000.0,3263.0
-91.0,-43.0,-138.0,-847.0,4000.0,-4000.0,-4000.0,2948.0
-61.0,-6.0,-94.0,-1114.0,4000.0,-4000.0,-4000.0,2835.0
-43.0,5.0,-50.0,-381.0,4000.0,-4000.0,-4000.0,1728.0
20.0,-4.0,-81.0,205.0,4000.0,-4000.0,-4000.0,555.0
-5.0,29.0,-93.0,512.0,4000.0,-4000.0,-4000.0,-1143.0
-18.0,8.0,-112.0,371.0,4000.0,-4000.0,-4000.0,-973.0
-147.0,-17.0,-103.0,187.0,4000.0,-4000.0,-4000.0,751.0
-213.0,-31.0,-98.0,149.0,4000.0,-2949.0,-4000.0,1598.0
-147.0,-41.0,-136.0,-184.0,4000.0,-1062.0,-4000.0,2507.0
-35.0,-23.0,-139.0,-446.0,4000.0,693.0,-4000.0,2835.0
24.0,54.0,-65.0,-625.0,4000.0,2490.0,-4000.0,2510.0
-17.0,110.0,-50.0,-739.0,4000.0,4000.0,-4000.0,2937.0
-11.0,131.0,-14.0,-594.0,4000.0,4000.0,-4000.0,3393.0
-35.0,134.0,107.0,-387.0,3916.0,4000.0,-4000.0,2883.0
-11.0,105.0,231.0,-45.0,4000.0,4000.0,-4000.0,2498.0
-24.0,86.0,207.0,42.0,4000.0,4000.0,-4000.0,2901.0
-60.0,81.0,55.0,-116.0,4000.0,4000.0,-4000.0,2835.0
-42.0,65.0,-52.0,258.0,4000.0,4000.0,-4000.0,1686.0
13.0,65.0,-76.0,1306.0,4000.0,4000.0,-3962.0,1633.0
99.0,64.0,-105.0,1352.0,4000.0,4000.0,-3572.0,277.0
143.0,82.0,-108.0,250.0,3772.0,4000.0,-3444.0,-2309.0
214.0,116.0,-79.0,-167.0,1938.0,4000.0,-3338.0,-3397.0
249.0,120.0,-94.0,-178.0,-818.0,4000.0,-2951.0,-3414.0
227.0,99.0,-78.0,60.0,-3803.0,4000.0,-3184.0,-4000.0
167.0,41.0,-50.0,325.0,-4000.0,4000.0,-3641.0,-4000.0
95.0,-30.0,-70.0,360.0,-4000.0,4000.0,-2951.0,-2004.0
72.0,-24.0,-46.0,272.0,-4000.0,4000.0,-2368.0,329.0
-12.0,-24.0,-27.0,-21.0,-4000.0,4000.0,-2471.0,-693.0
-52.0,-78.0,-187.0,-155.0,-4000.0,4000.0,-1897.0,550.0
-73.0,-103.0,-324.0,194.0,-4000.0,4000.0,-620.0,596.0
-172.0,-114.0,-389.0,472.0,-4000.0,4000.0,661.0,-142.0
-234.0,-112.0,-335.0,272.0,-4000.0,4000.0,1463.0,-671.0
-274.0,-94.0,-215.0,258.0,-4000.0,4000.0,1993.0,338.0
-247.0,-80.0,-157.0,282.0,-4000.0,3900.0,2179.0,2314.0
-119.0,-28.0,-9.0,106.0,-4000.0,2485.0,1919.0,2819.0
-59.0,20.0,211.0,-27.0,-4000.0,876.0,1274.0,2883.0
-105.0,-5.0,569.0,-25.0,-4000.0,-289.0,858.0,3079.0
-97.0,-18.0,728.0,-54.0,-4000.0,-923.0,1010.0,2563.0
-59.0,-26.0,606.0,-206.0,-4000.0,-1421.0,802.0,2094.0
-53.0,-50.0,520.0,-165.0,-4000.0,-2156.0,421.0,1728.0
-2.0,-31.0,526.0,52.0,-4000.0,-3116.0,201.0,1574.0
-27.0,-27.0,648.0,272.0,-4000.0,-3683.0,-326.0,1384.0
36.0,-11.0,663.0,472.0,-4000.0,-4000.0,-1076.0,1071.0
393.0,-11.0,836.0,472.0,-3563.0,-4000.0,-1462.0,1112.0
725.0,-39.0,1119.0,394.0,-1782.0,-4000.0,-1441.0,967.0
391.0,-10.0,931.0,-225.0,519.0,-4000.0,-1291.0,751.0
56.0,4.0,373.0,-1235.0,2581.0,-3645.0,-1048.0,719.0
-12.0,24.0,113.0,-1370.0,4000.0,-3749.0,-779.0,751.0
-142.0,24.0,33.0,-1146.0,4000.0,-4000.0,-534.0,470.0
80.0,27.0,-66.0,-1526.0,4000.0,-4000.0,-267.0,53.0
360.0,13.0,-2.0,-1988.0,4000.0,-4000.0,116.0,-312.0
870.0,13.0,-75.0,-1638.0,4000.0,-4000.0,329.0,-452.0
692.0,12.0,-194.0,-841.0,4000.0,-4000.0,315.0,21.0
-188.0,-38.0,-401.0,-377.0,4000.0,-3535.0,362.0,328.0
-771.0,-32.0,-672.0,197.0,4000.0,-2620.0,628.0,49.0
-1547.0,-27.0,-903.0,645.0,4000.0,-1802.0,818.0,178.0
-1552.0,-18.0,-1019.0,956.0,4000.0,-836.0,854.0,201.0
-1084.0,2.0,-957.0,923.0,4000.0,223.0,812.0,-144.0
-784.0,28.0,-906.0,557.0,4000.0,1645.0,661.0,-301.0
-541.0,58.0,-827.0,515.0,4000.0,3333.0,693.0,-536.0
-388.0,73.0,-702.0,714.0,4000.0,4000.0,856.0,-301.0
-85.0,68.0,-585.0,903.0,4000.0,4000.0,1019.0,-464.0
80.0,85.0,-541.0,1039.0,4000.0,4000.0,1027.0,-453.0
285.0,53.0,-532.0,1144.0,4000.0,4000.0,1137.0,-20.0
553.0,58.0,-498.0,649.0,4000.0,4000.0,1314.0,-366.0
399.0,87.0,-503.0,232.0,4000.0,4000.0,1332.0,-809.0
175.0,49.0,-519.0,99.0,4000.0,4000.0,1539.0,-679.0
277.0,59.0,-629.0,13.0,4000.0,4000.0,1921.0,-622.0
521.0,67.0,-696.0,-6.0,4000.0,4000.0,2125.0,-1061.0
608.0,43.0,-679.0,-212.0,4000.0,4000.0,2114.0,-948.0
393.0,55.0,-716.0,-214.0,4000.0,4000.0,1996.0,-953.0
79.0,40.0,-661.0,-78.0,4000.0,4000.0,1856.0,-1256.0
-280.0,10.0,-580.0,59.0,4000.0,3214.0,1670.0,-1339.0
-234.0,38.0,-544.0,-12.0,4000.0,243.0,1574.0,-1643.0
391.0,20.0,-578.0,-66.0,4000.0,-2286.0,1410.0,-1508.0
986.0,15.0,-628.0,-161.0,4000.0,-4000.0,1313.0,-1365.0
738.0,-17.0,-552.0,-498.0,1539.0,-4000.0,1280.0,-1274.0
228.0,-63.0,-442.0,-515.0,-305.0,-4000.0,1158.0,-2100.0
-75.0,-63.0,-288.0,-348.0,-2247.0,-4000.0,1119.0,-2983.0
-209.0,-46.0,-169.0,-133.0,-3920.0,-4000.0,1326.0,-2676.0
58.0,-50.0,-115.0,65.0,-4000.0,-4000.0,1534.0,-2828.0
181.0,-72.0,-129.0,60.0,-4000.0,-4000.0,1483.0,-2865.0
444.0,-78.0,-129.0,-13.0,-4000.0,-4000.0,1418.0,-2283.0
447.0,-121.0,-105.0,-66.0,-4000.0,-4000.0,1313.0,-2244.0
147.0,-100.0,-88.0,9.0,-4000.0,-4000.0,1249.0,-2395.0
-212.0,-110.0,-45.0,185.0,-4000.0,-4000.0,1164.0,-2295.0
-476.0,-100.0,-3.0,96.0,-3802.0,-4000.0,930.0,-2050.0
-671.0,-45.0,-3.0,-437.0,-3379.0,-4000.0,767.0,-1461.0
-816.0,-39.0,-50.0,-724.0,-3172.0,-4000.0,661.0,-1018.0
-698.0,-22.0,-3.0,-487.0,-4000.0,-4000.0,571.0,-940.0
-763.0,-36.0,71.0,-393.0,-4000.0,-3840.0,404.0,-324.0
-649.0,-23.0,112.0,-220.0,-4000.0,-1960.0,197.0,-594.0
-416.0,-16.0,146.0,-129.0,-4000.0,-250.0,58.0,-934.0
-261.0,-24.0,148.0,-101.0,-4000.0,1521.0,109.0,-650.0
-104.0,42.0,201.0,123.0,-4000.0,2629.0,248.0,-1514.0
56.0,85.0,225.0,256.0,-3575.0,3267.0,276.0,-1540.0
327.0,50.0,229.0,538.0,589.0,3296.0,234.0,-211.0
342.0,21.0,270.0,771.0,4000.0,3539.0,99.0,-123.0
73.0,11.0,268.0,687.0,4000.0,3835.0,51.0,-555.0
-12.0,-5.0,251.0,352.0,4000.0,4000.0,132.0,228.0
45.0,20.0,237.0,254.0,4000.0,4000.0,51.0,264.0
66.0,63.0,206.0,264.0,4000.0,4000.0,145.0,517.0
143.0,66.0,153.0,40.0,4000.0,4000.0,480.0,1716.0
260.0,30.0,21.0,-149.0,4000.0,4000.0,478.0,1698.0
745.0,31.0,-36.0,-332.0,-228.0,4000.0,461.0,1307.0
1506.0,29.0,80.0,-258.0,-4000.0,4000.0,533.0,2283.0
1962.0,28.0,213.0,-97.0,4000.0,4000.0,521.0,3209.0
1506.0,52.0,203.0,-86.0,4000.0,4000.0,359.0,3535.0
-148.0,70.0,309.0,-108.0,4000.0,4000.0,116.0,3326.0
-1105.0,81.0,337.0,-293.0,4000.0,4000.0,235.0,2901.0
-1351.0,106.0,125.0,-245.0,4000.0,4000.0,42.0,3226.0
-1342.0,137.0,137.0,-13.0,4000.0,4000.0,-10.0,3291.0
-777.0,83.0,85.0,116.0,4000.0,4000.0,111.0,3356.0
-679.0,47.0,-98.0,85.0,4000.0,4000.0,181.0,3390.0
-354.0,34.0,-212.0,-195.0,4000.0,4000.0,490.0,3521.0
-250.0,-10.0,-220.0,-230.0,4000.0,4000.0,356.0,3739.0
-518.0,-39.0,-187.0,-196.0,4000.0,3137.0,374.0,3831.0
-818.0,-49.0,-225.0,-293.0,4000.0,1329.0,404.0,3871.0
-775.0,-42.0,-320.0,-326.0,4000.0,-1030.0,543.0,3700.0
-482.0,10.0,-143.0,-230.0,4000.0,-2685.0,554.0,3469.0
-73.0,36.0,96.0,-98.0,4000.0,-3470.0,431.0,3079.0
209.0,-2.0,8.0,18.0,4000.0,-3364.0,616.0,2807.0
82.0,-4.0,-129.0,102.0,4000.0,-2949.0,393.0,2313.0
387.0,22.0,-135.0,164.0,4000.0,-2293.0,394.0,1912.0
580.0,28.0,-155.0,116.0,4000.0,-1717.0,725.0,1924.0
634.0,-14.0,-234.0,-163.0,2485.0,-1200.0,824.0,2042.0
595.0,20.0,-253.0,-230.0,627.0,-485.0,669.0,2225.0
673.0,62.0,-175.0,-282.0,298.0,-93.0,590.0,2284.0
631.0,23.0,66.0,-206.0,-1423.0,29.0,802.0,2160.0
382.0,-17.0,188.0,-60.0,-2419.0,19.0,795.0,1769.0
408.0,-83.0,211.0,23.0,-4000.0,15.0,642.0,1198.0
673.0,-104.0,215.0,156.0,-4000.0,-39.0,563.0,913.0
888.0,-87.0,122.0,268.0,-4000.0,-29.0,637.0,675.0
570.0,-60.0,160.0,394.0,-4000.0,-306.0,685.0,384.0
342.0,-57.0,205.0,276.0,-4000.0,-613.0,413.0,293.0
125.0,-36.0,271.0,-1.0,-4000.0,-1177.0,273.0,13.0
-209.0,-43.0,328.0,-222.0,-4000.0,-1915.0,401.0,-291.0
-449.0,-78.0,394.0,-326.0,-4000.0,-2313.0,554.0,-484.0
-513.0,-59.0,663.0,-247.0,-4000.0,-2657.0,538.0,-482.0
-483.0,-52.0,828.0,-67.0,-4000.0,-2673.0,506.0,-692.0
-565.0,-45.0,764.0,-40.0,-4000.0,-2620.0,702.0,-803.0
-493.0,-55.0,694.0,-54.0,-4000.0,-2685.0,897.0,-971.0
-376.0,-64.0,695.0,-48.0,-4000.0,-2660.0,934.0,-1187.0
-155.0,-81.0,523.0,-36.0,-4000.0,-2235.0,628.0,-1339.0
-128.0,-64.0,309.0,-140.0,-4000.0,-1636.0,276.0,-1450.0
-172.0,-31.0,140.0,-161.0,-4000.0,-1042.0,101.0,-1365.0
-45.0,-16.0,89.0,-34.0,-4000.0,-472.0,-23.0,-1325.0
-180.0,4.0,174.0,-46.0,-4000.0,-86.0,-41.0,-824.0
-235.0,-4.0,203.0,61.0,-4000.0,309.0,11.0,-993.0
-98.0,19.0,343.0,102.0,-4000.0,474.0,60.0,-1049.0
-151.0,23.0,296.0,6.0,-4000.0,274.0,61.0,-978.0
-251.0,30.0,263.0,-129.0,-4000.0,101.0,-69.0,-1037.0
-162.0,29.0,476.0,-196.0,-4000.0,45.0,-334.0,-118.0
139.0,49.0,676.0,-106.0,-4000.0,2.0,-290.0,349.0
458.0,75.0,450.0,-146.0,-4000.0,274.0,17.0,373.0
645.0,122.0,-29.0,-91.0,-4000.0,758.0,236.0,804.0
422.0,196.0,-141.0,80.0,-4000.0,870.0,220.0,914.0
144.0,117.0,-385.0,31.0,-4000.0,713.0,61.0,666.0
-66.0,57.0,-507.0,7.0,-4000.0,681.0,99.0,1403.0
-382.0,26.0,-288.0,50.0,-4000.0,627.0,38.0,1003.0
-250.0,-13.0,-91.0,191.0,-4000.0,441.0,-228.0,-124.0
-154.0,15.0,130.0,280.0,-4000.0,498.0,27.0,210.0
-250.0,-19.0,118.0,217.0,-4000.0,788.0,329.0,-195.0
-258.0,-52.0,152.0,226.0,-4000.0,953.0,143.0,-692.0
-250.0,-56.0,172.0,142.0,-4000.0,506.0,-23.0,-1038.0
-261.0,-92.0,152.0,32.0,-4000.0,262.0,-391.0,-1208.0
-403.0,-53.0,152.0,-25.0,-4000.0,520.0,-902.0,-1274.0
-437.0,-63.0,105.0,-55.0,-4000.0,480.0,-1497.0,-1245.0
-285.0,-48.0,328.0,-17.0,-4000.0,278.0,-1944.0,-1012.0
-128.0,64.0,385.0,98.0,-3753.0,-149.0,-2042.0,-1013.0
195.0,67.0,103.0,255.0,-2316.0,-284.0,-1914.0,-659.0
561.0,46.0,-37.0,295.0,-669.0,-550.0,-1749.0,27.0
654.0,54.0,-90.0,268.0,448.0,-1489.0,-1507.0,751.0
699.0,37.0,-70.0,296.0,1756.0,-2595.0,-1228.0,1242.0
692.0,-4.0,64.0,282.0,3399.0,-3507.0,-1178.0,1698.0
1569.0,13.0,47.0,152.0,4000.0,-4000.0,-924.0,1533.0
2158.0,9.0,-73.0,34.0,4000.0,-4000.0,-676.0,867.0
627.0,-73.0,-113.0,-96.0,4000.0,-4000.0,-607.0,32.0
-493.0,-89.0,-97.0,-178.0,4000.0,-4000.0,-998.0,-953.0
-510.0,-49.0,20.0,-182.0,4000.0,-4000.0,-1397.0,-1670.0
-620.0,11.0,-21.0,-106.0,4000.0,-4000.0,-1507.0,-2324.0
-685.0,12.0,19.0,99.0,4000.0,-4000.0,-1441.0,-2763.0
-637.0,106.0,736.0,262.0,4000.0,-4000.0,-1006.0,-2983.0
-560.0,225.0,1192.0,178.0,4000.0,-3852.0,-685.0,-3073.0
-421.0,196.0,703.0,-22.0,4000.0,-3193.0,-477.0,-3203.0
433.0,173.0,-12.0,-98.0,4000.0,-2221.0,-84.0,-3527.0
660.0,182.0,-12.0,-129.0,4000.0,-1192.0,521.0,-3708.0
102.0,221.0,368.0,-226.0,4000.0,-375.0,1070.0,-3695.0
-497.0,269.0,111.0,-326.0,4000.0,260.0,1593.0,-3708.0
-836.0,200.0,-463.0,-260.0,3464.0,823.0,1314.0,-3593.0
342.0,-24.0,-821.0,-306.0,1398.0,1573.0,59.0,-3198.0
1702.0,-183.0,-1036.0,-462.0,-223.0,2047.0,-716.0,-2783.0
322.0,-275.0,-971.0,-479.0,-2715.0,2694.0,-1684.0,-2633.0
-508.0,-347.0,-841.0,-323.0,-4000.0,3409.0,-2340.0,-2800.0
-323.0,-234.0,-515.0,-74.0,-4000.0,4000.0,-2715.0,-2865.0
-1267.0,-144.0,195.0,325.0,-4000.0,4000.0,-3538.0,-2656.0
-1045.0,-299.0,523.0,603.0,-4000.0,4000.0,-3766.0,-2344.0
-765.0,-342.0,606.0,590.0,-4000.0,4000.0,-3922.0,-2293.0
538.0,-188.0,671.0,410.0,-4000.0,4000.0,-3700.0,-2490.0
1541.0,-88.0,474.0,425.0,-4000.0,4000.0,-2886.0,-2427.0
183.0,24.0,337.0,345.0,-4000.0,4000.0,-1605.0,-1921.0
-936.0,-16.0,335.0,-182.0,-4000.0,4000.0,-135.0,-1448.0
-1801.0,-79.0,185.0,-509.0,-4000.0,1417.0,897.0,-1078.0
-2322.0,-8.0,-182.0,-704.0,-4000.0,-855.0,1406.0,-815.0
-1704.0,14.0,202.0,-784.0,-4000.0,1222.0,1705.0,-594.0
-746.0,135.0,1029.0,-696.0,-2757.0,3005.0,1971.0,-24.0
464.0,269.0,712.0,-540.0,2100.0,2512.0,2049.0,444.0
1572.0,120.0,-37.0,-411.0,4000.0,1539.0,2125.0,548.0
1987.0,-11.0,-350.0,-393.0,4000.0,-1717.0,2503.0,677.0
1540.0,26.0,-519.0,-271.0,4000.0,-4000.0,2570.0,725.0
1051.0,43.0,-316.0,-206.0,4000.0,-4000.0,1854.0,601.0
929.0,34.0,-35.0,-81.0,4000.0,-4000.0,1345.0,601.0
-571.0,77.0,299.0,155.0,4000.0,-4000.0,1004.0,661.0
-1652.0,128.0,455.0,199.0,4000.0,-4000.0,1280.0,825.0
-1699.0,111.0,566.0,260.0,4000.0,-1440.0,2256.0,939.0
-1544.0,128.0,476.0,244.0,4000.0,1704.0,2647.0,1077.0
-339.0,176.0,130.0,106.0,4000.0,4000.0,2322.0,1272.0
1116.0,217.0,669.0,72.0,4000.0,4000.0,1919.0,1399.0
1767.0,266.0,2221.0,167.0,4000.0,4000.0,1454.0,1391.0
3172.0,347.0,2811.0,252.0,4000.0,4000.0,818.0,1242.0
4000.0,256.0,-255.0,179.0,4000.0,4000.0,413.0,1131.0
3821.0,95.0,-2704.0,210.0,4000.0,4000.0,27.0,1071.0
4000.0,229.0,-2717.0,350.0,151.0,4000.0,-442.0,837.0
430.0,117.0,-2241.0,223.0,-4000.0,4000.0,-1071.0,254.0
-3734.0,-228.0,-33.0,142.0,-4000.0,1539.0,-946.0,-44.0
-4000.0,-113.0,160.0,251.0,2448.0,-1010.0,-592.0,-370.0
-4000.0,-26.0,-1581.0,171.0,4000.0,-3323.0,-1141.0,-758.0
-4000.0,134.0,-2009.0,155.0,4000.0,-4000.0,-986.0,-1259.0
-4000.0,323.0,-2123.0,31.0,4000.0,-4000.0,-1271.0,-1970.0
-4000.0,152.0,-1581.0,-88.0,4000.0,-4000.0,-1979.0,-1788.0
-3544.0,-55.0,-1007.0,-65.0,4000.0,-4000.0,-2793.0,-1756.0
-2283.0,-220.0,-2267.0,-33.0,4000.0,-4000.0,-4000.0,-1709.0
171.0,-100.0,-2717.0,104.0,-4000.0,-4000.0,-4000.0,-1774.0
825.0,-133.0,-1016.0,22.0,-4000.0,-4000.0,-4000.0,-1518.0
1300.0,-333.0,847.0,-16.0,-4000.0,-4000.0,-3301.0,-366.0
1059.0,-360.0,1110.0,15.0,-4000.0,-297.0,-3249.0,556.0
1572.0,-292.0,917.0,75.0,-4000.0,2840.0,-2420.0,1346.0
1476.0,-275.0,1293.0,75.0,-4000.0,4000.0,681.0,1818.0
1677.0,-261.0,996.0,-51.0,-4000.0,4000.0,1189.0,2380.0
2158.0,-267.0,1249.0,-71.0,-4000.0,4000.0,1353.0,2313.0
2536.0,-413.0,1739.0,-106.0,-4000.0,4000.0,1667.0,2105.0
3200.0,-275.0,1940.0,-112.0,-4000.0,4000.0,1007.0,2310.0
3182.0,-31.0,1900.0,-6.0,-4000.0,4000.0,1137.0,2624.0
2002.0,48.0,1444.0,-47.0,-4000.0,4000.0,2908.0,3226.0
204.0,67.0,891.0,-129.0,-4000.0,4000.0,4000.0,3987.0
-550.0,-32.0,263.0,-88.0,-4000.0,4000.0,4000.0,4000.0
-360.0,-126.0,-212.0,-22.0,-4000.0,4000.0,4000.0,3673.0
920.0,9.0,-1362.0,87.0,3725.0,4000.0,4000.0,3662.0
2410.0,181.0,-1974.0,167.0,4000.0,4000.0,4000.0,3600.0
3052.0,162.0,-1667.0,164.0,4000.0,4000.0,4000.0,2901.0
1246.0,249.0,-1484.0,90.0,4000.0,2694.0,4000.0,2507.0
-1522.0,342.0,-688.0,19.0,4000.0,3902.0,4000.0,2248.0
-2631.0,288.0,57.0,27.0,4000.0,4000.0,4000.0,2804.0
-1522.0,227.0,546.0,2.0,4000.0,4000.0,4000.0,2377.0
1372.0,149.0,207.0,-24.0,4000.0,4000.0,4000.0,2371.0
900.0,-21.0,-224.0,-48.0,4000.0,4000.0,3298.0,2172.0
-1235.0,-92.0,-450.0,-171.0,4000.0,4000.0,2746.0,2314.0
-1856.0,-37.0,-265.0,-182.0,4000.0,4000.0,2114.0,2835.0
-2023.0,-3.0,793.0,-116.0,4000.0,4000.0,2297.0,1476.0
-1658.0,-97.0,996.0,31.0,4000.0,4000.0,2125.0,988.0
-2329.0,-228.0,524.0,204.0,4000.0,2759.0,1593.0,1728.0
-1918.0,-32.0,38.0,236.0,4000.0,602.0,888.0,2118.0
-850.0,-6.0,-98.0,262.0,4000.0,-1912.0,-44.0,2418.0
312.0,-139.0,122.0,351.0,1756.0,-4000.0,-211.0,2357.0
1291.0,-97.0,309.0,569.0,-4000.0,-4000.0,-510.0,1439.0
790.0,18.0,186.0,175.0,-4000.0,-4000.0,-499.0,-2062.0
888.0,168.0,-2.0,-462.0,-4000.0,-4000.0,365.0,-4000.0
473.0,57.0,-46.0,-513.0,-4000.0,-4000.0,858.0,-4000.0
346.0,16.0,-287.0,-659.0,-4000.0,-4000.0,1033.0,-4000.0
202.0,-66.0,-421.0,-782.0,-4000.0,-4000.0,1825.0,-4000.0
367.0,-210.0,-257.0,-702.0,-4000.0,-4000.0,2307.0,-4000.0
1670.0,-142.0,40.0,-448.0,-4000.0,-4000.0,2517.0,-3439.0
2922.0,-134.0,450.0,-159.0,-4000.0,-4000.0,3103.0,-1380.0
2939.0,-178.0,663.0,-60.0,-4000.0,-4000.0,2647.0,1198.0
562.0,-216.0,1029.0,47.0,-4000.0,-3387.0,1656.0,2445.0
-784.0,-115.0,1310.0,-33.0,-4000.0,-2091.0,1079.0,3804.0
-1685.0,-12.0,872.0,-39.0,-4000.0,-417.0,1667.0,4000.0
-1931.0,9.0,872.0,81.0,-4000.0,1118.0,3465.0,4000.0
-1277.0,-35.0,903.0,-73.0,-4000.0,2645.0,4000.0,4000.0
-966.0,58.0,364.0,-255.0,-4000.0,3790.0,1801.0,4000.0
-367.0,163.0,908.0,-125.0,-4000.0,3398.0,-2577.0,4000.0
-372.0,261.0,1574.0,-29.0,-4000.0,2953.0,-3832.0,4000.0
-378.0,355.0,1368.0,-247.0,-4000.0,2888.0,-4000.0,4000.0
-641.0,412.0,914.0,-206.0,-2270.0,2577.0,-4000.0,3910.0
-470.0,382.0,-571.0,-99.0,-1888.0,2888.0,-4000.0,-482.0
281.0,248.0,-2122.0,-49.0,-987.0,2747.0,-4000.0,-3708.0
778.0,109.0,-2407.0,150.0,1938.0,2438.0,-4000.0,-4000.0
635.0,-53.0,-1629.0,226.0,4000.0,2943.0,-4000.0,-4000.0
-221.0,-88.0,-937.0,154.0,4000.0,3875.0,-4000.0,-4000.0
-327.0,-52.0,-1703.0,116.0,4000.0,3202.0,-4000.0,-2128.0
-277.0,89.0,-1797.0,226.0,4000.0,2243.0,-4000.0,200.0
-229.0,84.0,-768.0,303.0,4000.0,3083.0,-4000.0,227.0
-79.0,53.0,-487.0,305.0,4000.0,4000.0,-4000.0,-1261.0
232.0,66.0,-585.0,287.0,4000.0,3875.0,-4000.0,-2959.0
393.0,7.0,-839.0,264.0,4000.0,2112.0,-4000.0,-4000.0
300.0,25.0,-716.0,264.0,4000.0,2158.0,-4000.0,-4000.0
477.0,33.0,1627.0,245.0,4000.0,2447.0,-4000.0,-2812.0
293.0,-7.0,4000.0,193.0,4000.0,2295.0,-3432.0,-301.0
133.0,-32.0,4000.0,191.0,4000.0,2240.0,-2549.0,2357.0
139.0,10.0,3433.0,223.0,4000.0,878.0,-1962.0,4000.0
55.0,3.0,-2717.0,211.0,4000.0,-1774.0,-2114.0,4000.0
-51.0,5.0,-4000.0,172.0,4000.0,-4000.0,-2055.0,4000.0
25.0,24.0,-4000.0,15.0,4000.0,-4000.0,-1441.0,4000.0
240.0,67.0,-4000.0,-34.0,4000.0,-4000.0,-774.0,4000.0
228.0,63.0,-3225.0,50.0,4000.0,-4000.0,-515.0,4000.0
154.0,33.0,-1948.0,49.0,4000.0,-4000.0,-305.0,4000.0
113.0,47.0,-941.0,-63.0,4000.0,-4000.0,206.0,4000.0
39.0,30.0,-363.0,-256.0,4000.0,-4000.0,356.0,4000.0
85.0,69.0,130.0,-387.0,4000.0,-4000.0,404.0,4000.0
416.0,117.0,642.0,-433.0,4000.0,-4000.0,477.0,4000.0
440.0,135.0,1350.0,-290.0,4000.0,-4000.0,543.0,3209.0
-9.0,75.0,1053.0,-20.0,4000.0,-4000.0,571.0,1437.0
-321.0,-64.0,-255.0,13.0,4000.0,-3376.0,746.0,-462.0
-550.0,-126.0,-519.0,56.0,489.0,1395.0,998.0,-3154.0
-612.0,-155.0,-532.0,85.0,-4000.0,4000.0,1202.0,-4000.0
-539.0,-172.0,43.0,64.0,-4000.0,4000.0,1469.0,-4000.0
-415.0,-142.0,389.0,16.0,-4000.0,4000.0,1723.0,-4000.0
-314.0,-155.0,284.0,-111.0,-4000.0,4000.0,1967.0,-4000.0
-310.0,-206.0,546.0,-112.0,-4000.0,4000.0,1931.0,-4000.0
-374.0,-219.0,676.0,-90.0,-4000.0,4000.0,1801.0,-4000.0
-282.0,-168.0,840.0,-119.0,-4000.0,4000.0,1825.0,-4000.0
-31.0,-114.0,793.0,-220.0,-4000.0,4000.0,1854.0,-4000.0
29.0,-83.0,741.0,-285.0,-4000.0,4000.0,1735.0,-4000.0
55.0,-57.0,401.0,-247.0,-4000.0,1799.0,1645.0,-4000.0
11.0,-48.0,343.0,-263.0,-4000.0,-4000.0,1639.0,955.0
-107.0,-26.0,497.0,-228.0,-4000.0,-4000.0,1602.0,4000.0
-176.0,-55.0,526.0,-116.0,4000.0,-4000.0,1418.0,4000.0
-92.0,-65.0,546.0,0.0,4000.0,-4000.0,1446.0,4000.0
-38.0,-16.0,516.0,138.0,4000.0,-4000.0,1548.0,4000.0
-132.0,-36.0,653.0,228.0,4000.0,-4000.0,1575.0,871.0
-24.0,-21.0,683.0,199.0,4000.0,-4000.0,1418.0,-4000.0
14.0,26.0,695.0,244.0,4000.0,-4000.0,1033.0,-4000.0
17.0,36.0,501.0,15.0,-1918.0,3280.0,823.0,-4000.0
76.0,64.0,260.0,-418.0,-4000.0,4000.0,673.0,-4000.0
31.0,105.0,141.0,-511.0,-4000.0,4000.0,464.0,-4000.0
77.0,111.0,113.0,-745.0,-4000.0,4000.0,300.0,-4000.0
110.0,99.0,73.0,-959.0,-4000.0,3621.0,112.0,-4000.0
80.0,38.0,-57.0,-1166.0,-4000.0,876.0,144.0,-1261.0
56.0,21.0,-135.0,-891.0,-4000.0,3529.0,309.0,2314.0
149.0,25.0,-149.0,-28.0,-4000.0,1380.0,394.0,4000.0
169.0,-3.0,-54.0,498.0,-4000.0,1136.0,427.0,4000.0
109.0,-43.0,-23.0,923.0,4000.0,1417.0,469.0,4000.0
97.0,-29.0,-80.0,1241.0,4000.0,209.0,608.0,4000.0
15.0,24.0,-111.0,1306.0,4000.0,-875.0,738.0,4000.0
-3.0,39.0,-114.0,1436.0,4000.0,-1701.0,838.0,3910.0
-16.0,52.0,-219.0,1424.0,4000.0,-2008.0,962.0,3910.0
-31.0,40.0,-255.0,1314.0,4000.0,-4000.0,1060.0,3869.0
4.0,69.0,-169.0,1234.0,4000.0,-4000.0,1084.0,3079.0
-23.0,93.0,-101.0,649.0,4000.0,-4000.0,1098.0,1977.0
-27.0,55.0,133.0,-107.0,4000.0,-4000.0,1280.0,778.0
12.0,50.0,187.0,-565.0,4000.0,-4000.0,1323.0,-627.0
51.0,152.0,-72.0,-1044.0,4000.0,-3506.0,1202.0,-2362.0
33.0,176.0,-239.0,-1174.0,4000.0,-1951.0,1124.0,-4000.0
1.0,3.0,-271.0,-1109.0,4000.0,-510.0,637.0,-4000.0
28.0,-81.0,-66.0,-951.0,4000.0,3604.0,53.0,-4000.0
-3.0,-102.0,394.0,-580.0,4000.0,4000.0,-131.0,-4000.0
-18.0,-139.0,402.0,-336.0,4000.0,4000.0,-277.0,-4000.0
-21.0,-89.0,-138.0,-157.0,4000.0,4000.0,-449.0,-3931.0
-39.0,-38.0,-371.0,7.0,4000.0,4000.0,-67.0,4000.0
-28.0,4.0,-348.0,132.0,4000.0,4000.0,557.0,4000.0
-19.0,54.0,-200.0,-39.0,4000.0,4000.0,860.0,4000.0
18.0,91.0,-154.0,-25.0,4000.0,4000.0,1071.0,4000.0
16.0,71.0,-122.0,178.0,-374.0,4000.0,684.0,4000.0
11.0,7.0,-88.0,333.0,-4000.0,4000.0,209.0,4000.0
15.0,30.0,-39.0,378.0,-4000.0,4000.0,-32.0,4000.0
0.0,30.0,72.0,-83.0,-4000.0,4000.0,-320.0,4000.0
-24.0,69.0,-42.0,-450.0,-4000.0,4000.0,-179.0,4000.0
-34.0,238.0,-135.0,-877.0,-4000.0,4000.0,-154.0,4000.0
-14.0,223.0,-217.0,-1109.0,-4000.0,4000.0,-344.0,4000.0
-35.0,15.0,-144.0,-761.0,-4000.0,4000.0,-582.0,4000.0
-41.0,34.0,-139.0,-458.0,-4000.0,4000.0,-664.0,4000.0
-15.0,408.0,-119.0,-73.0,-4000.0,4000.0,-607.0,4000.0
-31.0,465.0,-60.0,207.0,-4000.0,3857.0,-546.0,4000.0
-21.0,-56.0,-39.0,329.0,-4000.0,2940.0,-424.0,4000.0
9.0,-280.0,20.0,329.0,-4000.0,1821.0,-283.0,4000.0
-13.0,-399.0,-17.0,199.0,-4000.0,-58.0,-124.0,4000.0
-18.0,-527.0,41.0,199.0,-4000.0,-1127.0,-56.0,4000.0
-51.0,-456.0,64.0,109.0,-4000.0,-602.0,-27.0,1651.0
-78.0,-478.0,36.0,-79.0,-4000.0,404.0,-148.0,-131.0
-21.0,-310.0,-43.0,-442.0,-3381.0,532.0,-224.0,-1339.0
-20.0,-231.0,-105.0,-898.0,-285.0,766.0,-192.0,-2425.0
-18.0,-208.0,-149.0,-780.0,1511.0,1539.0,-118.0,-3268.0
-17.0,-77.0,-164.0,63.0,2760.0,2568.0,-100.0,-4000.0
-40.0,-135.0,-178.0,630.0,2825.0,3361.0,-44.0,-4000.0
-50.0,-188.0,-209.0,915.0,2251.0,2824.0,47.0,-4000.0
-73.0,95.0,-180.0,980.0,2842.0,2109.0,136.0,-4000.0
-54.0,315.0,-193.0,693.0,3297.0,1734.0,175.0,-4000.0
-61.0,200.0,-167.0,504.0,4000.0,1006.0,164.0,-4000.0
-96.0,113.0,-129.0,167.0,4000.0,183.0,315.0,-4000.0
-73.0,27.0,-54.0,167.0,4000.0,-28.0,380.0,-4000.0
-50.0,-23.0,-11.0,-65.0,4000.0,73.0,498.0,-4000.0
7.0,20.0,36.0,-301.0,4000.0,-37.0,529.0,-4000.0
-45.0,67.0,-52.0,-589.0,4000.0,-615.0,431.0,-4000.0
-126.0,59.0,-90.0,-898.0,4000.0,-816.0,576.0,-4000.0
31.0,53.0,60.0,-243.0,4000.0,-939.0,693.0,-4000.0
6.0,87.0,14.0,323.0,4000.0,-1247.0,684.0,-4000.0
80.0,125.0,89.0,836.0,4000.0,-1226.0,685.0,-4000.0
119.0,138.0,85.0,988.0,4000.0,-1502.0,693.0,-4000.0
43.0,93.0,106.0,836.0,4000.0,-1734.0,742.0,-4000.0
-3.0,1.0,94.0,678.0,4000.0,-1792.0,673.0,-4000.0
-122.0,-20.0,17.0,258.0,3232.0,-1532.0,603.0,-4000.0
-88.0,95.0,-38.0,-188.0,1012.0,-1330.0,563.0,-4000.0
-89.0,136.0,-128.0,-409.0,-4000.0,-1135.0,524.0,-4000.0
-40.0,119.0,-112.0,-711.0,-4000.0,-867.0,542.0,-4000.0
21.0,103.0,-86.0,-849.0,-4000.0,-773.0,497.0,-4000.0
60.0,63.0,23.0,-432.0,-4000.0,-576.0,451.0,-4000.0
24.0,73.0,13.0,-112.0,-4000.0,-459.0,441.0,-4000.0
39.0,28.0,-5.0,394.0,-4000.0,-297.0,331.0,-4000.0
34.0,-66.0,-37.0,684.0,-4000.0,-277.0,188.0,-4000.0
36.0,-108.0,-60.0,-37.0,-4000.0,-324.0,134.0,-4000.0
77.0,-166.0,-3.0,-659.0,-4000.0,-394.0,111.0,-4000.0
40.0,-190.0,31.0,-613.0,-4000.0,-435.0,106.0,-4000.0
49.0,-21.0,60.0,-604.0,-4000.0,-416.0,-14.0,-4000.0
17.0,142.0,24.0,-310.0,-4000.0,-434.0,-128.0,-4000.0
25.0,355.0,-20.0,-250.0,-4000.0,-411.0,-151.0,-4000.0
-3.0,254.0,-52.0,-352.0,-4000.0,-537.0,-189.0,-4000.0
0.0,-233.0,-70.0,-251.0,-4000.0,-532.0,-310.0,-4000.0
2.0,-296.0,-13.0,-91.0,-4000.0,-597.0,-355.0,-4000.0
-25.0,-247.0,81.0,329.0,-4000.0,-802.0,-373.0,-4000.0
0.0,-295.0,56.0,286.0,-4000.0,-750.0,-412.0,-4000.0
-40.0,-221.0,-21.0,-15.0,-4000.0,-743.0,-436.0,-4000.0
-26.0,-85.0,-39.0,-122.0,-3237.0,-705.0,-448.0,-4000.0
-1.0,65.0,-10.0,-247.0,-1685.0,-745.0,-489.0,-4000.0
-6.0,160.0,-5.0,-36.0,-160.0,-855.0,-672.0,-4000.0
-9.0,209.0,-22.0,538.0,570.0,-907.0,-745.0,-3593.0
-31.0,147.0,20.0,518.0,745.0,-940.0,-750.0,-32.0
12.0,188.0,102.0,455.0,426.0,-855.0,-743.0,2507.0
16.0,270.0,125.0,533.0,-295.0,-976.0,-680.0,4000.0
-9.0,359.0,102.0,447.0,-2435.0,-1140.0,-615.0,4000.0
-6.0,335.0,52.0,229.0,-4000.0,-1062.0,-475.0,4000.0
-7.0,256.0,42.0,-201.0,-4000.0,-963.0,-320.0,4000.0
15.0,225.0,89.0,-220.0,-4000.0,-977.0,-241.0,4000.0
17.0,182.0,68.0,-80.0,-4000.0,-875.0,-204.0,4000.0
36.0,162.0,-18.0,26.0,-4000.0,-790.0,-238.0,4000.0
30.0,93.0,28.0,121.0,-4000.0,-1103.0,-258.0,4000.0
7.0,85.0,60.0,41.0,-4000.0,-1198.0,-224.0,4000.0
-27.0,56.0,-15.0,138.0,-4000.0,-976.0,-179.0,4000.0
-31.0,28.0,35.0,317.0,-4000.0,-710.0,-84.0,4000.0
-11.0,57.0,69.0,376.0,-2741.0,-266.0,-157.0,4000.0
8.0,76.0,68.0,211.0,2306.0,-129.0,-140.0,4000.0
20.0,50.0,-4.0,48.0,4000.0,-289.0,-202.0,4000.0
7.0,-66.0,-28.0,-94.0,4000.0,-637.0,-284.0,4000.0
8.0,-133.0,54.0,-357.0,4000.0,-476.0,-298.0,4000.0
-17.0,-72.0,65.0,-604.0,4000.0,-85.0,-436.0,4000.0
-32.0,-3.0,-12.0,-873.0,4000.0,141.0,-355.0,4000.0
-5.0,-50.0,-78.0,-620.0,4000.0,439.0,-388.0,4000.0
-8.0,-199.0,-67.0,-373.0,4000.0,784.0,-327.0,4000.0
-16.0,-234.0,-17.0,-79.0,4000.0,1140.0,-90.0,4000.0
-20.0,-75.0,19.0,182.0,4000.0,933.0,-139.0,4000.0
-29.0,176.0,7.0,131.0,4000.0,874.0,-212.0,4000.0
-11.0,449.0,17.0,229.0,4000.0,923.0,-198.0,3831.0
-28.0,386.0,39.0,209.0,4000.0,944.0,-260.0,1091.0
-33.0,76.0,44.0,352.0,4000.0,636.0,-221.0,-622.0
-5.0,-10.0,50.0,328.0,4000.0,-240.0,-129.0,-417.0
-16.0,-124.0,81.0,229.0,4000.0,-685.0,95.0,-466.0
-60.0,-273.0,75.0,199.0,4000.0,-940.0,368.0,-3759.0
-23.0,-160.0,53.0,116.0,4000.0,-1135.0,497.0,-4000.0
6.0,-128.0,48.0,-95.0,4000.0,-1205.0,523.0,-4000.0
-11.0,-240.0,46.0,-169.0,4000.0,-1330.0,524.0,-4000.0
-44.0,-368.0,37.0,-73.0,4000.0,-1330.0,491.0,-4000.0
-49.0,-391.0,10.0,-89.0,4000.0,-1396.0,416.0,-4000.0
-33.0,-395.0,17.0,-121.0,4000.0,-1487.0,685.0,-4000.0
-70.0,-430.0,-13.0,-243.0,4000.0,-1447.0,1158.0,-4000.0
-76.0,-347.0,8.0,-182.0,4000.0,-1526.0,1532.0,-4000.0
-96.0,-155.0,5.0,-119.0,4000.0,-1369.0,1532.0,-4000.0
-82.0,-26.0,-30.0,-125.0,4000.0,-849.0,1228.0,-4000.0
-136.0,-18.0,-30.0,-160.0,4000.0,-48.0,1019.0,-4000.0
-171.0,30.0,-17.0,-261.0,4000.0,227.0,857.0,-4000.0
-176.0,-12.0,-5.0,-230.0,4000.0,-212.0,838.0,-4000.0
-229.0,-50.0,13.0,-133.0,4000.0,-710.0,1092.0,-4000.0
-142.0,-68.0,46.0,-55.0,4000.0,-650.0,1202.0,-4000.0
-22.0,-137.0,18.0,-56.0,4000.0,-529.0,1084.0,-4000.0
139.0,-136.0,-14.0,-114.0,4000.0,-468.0,1019.0,-4000.0
97.0,-83.0,-43.0,-191.0,4000.0,-8.0,1149.0,-4000.0
76.0,-16.0,-22.0,-255.0,4000.0,366.0,1463.0,-4000.0
142.0,-32.0,-10.0,-206.0,4000.0,791.0,1353.0,-4000.0
-77.0,-67.0,-52.0,-191.0,4000.0,987.0,1345.0,-4000.0
-186.0,-80.0,-5.0,-232.0,4000.0,1644.0,1454.0,-4000.0
-250.0,-46.0,-20.0,-393.0,3916.0,2189.0,1341.0,-4000.0
-245.0,-27.0,-66.0,-433.0,3606.0,2710.0,1418.0,-3926.0
-177.0,-1.0,-7.0,-206.0,2451.0,3474.0,1475.0,-2488.0
-140.0,23.0,-65.0,-100.0,456.0,3900.0,1341.0,-2062.0
66.0,26.0,-172.0,118.0,-1915.0,4000.0,1125.0,-1534.0
341.0,55.0,-292.0,-41.0,-4000.0,4000.0,779.0,-1265.0
277.0,60.0,-255.0,3.0,-4000.0,4000.0,467.0,-671.0
23.0,75.0,-50.0,341.0,-4000.0,3745.0,449.0,269.0
-44.0,90.0,-15.0,552.0,-4000.0,2694.0,628.0,751.0
-209.0,85.0,-6.0,988.0,-4000.0,2308.0,889.0,1521.0
-302.0,66.0,-90.0,891.0,-4000.0,2110.0,1019.0,1716.0
-309.0,55.0,-172.0,458.0,-4000.0,2189.0,683.0,1688.0
-244.0,34.0,-85.0,161.0,-4000.0,1798.0,123.0,973.0
-148.0,-6.0,-78.0,211.0,-4000.0,1263.0,-446.0,666.0
-165.0,-37.0,-45.0,-29.0,-4000.0,1140.0,-707.0,742.0
-126.0,-49.0,3.0,-636.0,-4000.0,1214.0,-556.0,556.0
-29.0,-30.0,53.0,-755.0,-4000.0,1344.0,-615.0,359.0
72.0,-26.0,103.0,-450.0,-4000.0,1227.0,-737.0,69.0
122.0,-47.0,39.0,-49.0,-4000.0,667.0,-946.0,-51.0
129.0,-65.0,3.0,110.0,-4000.0,315.0,-1113.0,50.0
36.0,-58.0,108.0,96.0,-4000.0,498.0,-941.0,541.0
21.0,-11.0,199.0,51.0,-4000.0,725.0,-1005.0,674.0
139.0,68.0,125.0,269.0,-4000.0,795.0,-1178.0,434.0
473.0,68.0,33.0,297.0,-4000.0,616.0,-1243.0,296.0
900.0,87.0,62.0,258.0,-4000.0,548.0,-1318.0,1020.0
543.0,133.0,55.0,146.0,-4000.0,532.0,-1487.0,2013.0
243.0,140.0,-146.0,73.0,-4000.0,669.0,-1634.0,2369.0
844.0,209.0,-232.0,207.0,-4000.0,701.0,-1571.0,2807.0
1246.0,263.0,-160.0,24.0,-4000.0,557.0,-1702.0,3079.0
564.0,347.0,-106.0,-30.0,-4000.0,506.0,-2017.0,3226.0
-206.0,453.0,-5.0,-68.0,-4000.0,471.0,-1793.0,3340.0
-476.0,412.0,40.0,-125.0,-4000.0,526.0,-1319.0,2938.0
-1065.0,311.0,24.0,-200.0,-3315.0,339.0,-941.0,1989.0
-1430.0,73.0,20.0,-201.0,228.0,21.0,-630.0,1482.0
-1752.0,-202.0,18.0,-208.0,4000.0,-214.0,-912.0,1047.0
-1799.0,-383.0,95.0,-271.0,4000.0,-216.0,-1136.0,201.0
-1170.0,-398.0,122.0,-159.0,4000.0,-318.0,-852.0,-541.0
-654.0,-301.0,93.0,-132.0,4000.0,-680.0,-473.0,-1083.0
-506.0,-207.0,190.0,-74.0,4000.0,-838.0,-161.0,-1298.0
-192.0,-43.0,190.0,-40.0,4000.0,-875.0,-318.0,-1070.0
255.0,42.0,183.0,-63.0,4000.0,-940.0,-262.0,-1169.0
306.0,150.0,116.0,-120.0,4000.0,-1070.0,-111.0,-889.0
447.0,213.0,-38.0,-186.0,4000.0,-1135.0,238.0,235.0
640.0,191.0,-31.0,-162.0,4000.0,-1097.0,1149.0,991.0
716.0,174.0,-18.0,-57.0,4000.0,-1115.0,1605.0,1780.0
673.0,87.0,12.0,105.0,1865.0,-1115.0,1735.0,2640.0
582.0,22.0,51.0,158.0,415.0,-1140.0,1996.0,3719.0
505.0,-26.0,-63.0,71.0,432.0,-1140.0,1734.0,4000.0
368.0,-14.0,-170.0,-53.0,342.0,-1227.0,1010.0,4000.0
305.0,111.0,-43.0,61.0,-239.0,-1330.0,1248.0,4000.0
342.0,222.0,103.0,144.0,-1433.0,-1304.0,1007.0,4000.0
382.0,174.0,165.0,158.0,-1398.0,-1135.0,403.0,4000.0
247.0,60.0,263.0,199.0,-1756.0,-966.0,-167.0,4000.0
197.0,65.0,217.0,93.0,-2676.0,-1050.0,-941.0,4000.0
149.0,-33.0,98.0,-72.0,-3726.0,-1265.0,-216.0,4000.0
45.0,-264.0,125.0,-234.0,-4000.0,-1446.0,498.0,4000.0
174.0,-214.0,-41.0,-345.0,-4000.0,-1699.0,17.0,4000.0
406.0,-53.0,-153.0,-319.0,-3474.0,-1373.0,126.0,4000.0
368.0,129.0,-70.0,-143.0,-2598.0,-703.0,535.0,4000.0
190.0,241.0,-265.0,-100.0,-1044.0,-770.0,619.0,4000.0
54.0,164.0,-96.0,13.0,1704.0,-835.0,42.0,4000.0
22.0,33.0,130.0,56.0,3983.0,-668.0,-941.0,2948.0
104.0,-135.0,89.0,7.0,4000.0,-630.0,-1006.0,731.0
660.0,-128.0,256.0,128.0,4000.0,-550.0,-726.0,-1449.0
1441.0,-87.0,308.0,80.0,4000.0,-455.0,-442.0,-3480.0
888.0,-150.0,533.0,91.0,4000.0,-591.0,170.0,-4000.0
-42.0,-196.0,872.0,106.0,4000.0,-384.0,-114.0,-4000.0
-569.0,-318.0,1112.0,-30.0,4000.0,179.0,-855.0,-4000.0
-1031.0,-218.0,510.0,-163.0,4000.0,339.0,-1050.0,-4000.0
-909.0,-31.0,-702.0,-247.0,-4000.0,394.0,-743.0,-4000.0
-719.0,33.0,-761.0,-125.0,-4000.0,225.0,87.0,-4000.0
-549.0,110.0,-814.0,-31.0,-4000.0,246.0,555.0,-4000.0
-404.0,105.0,-1106.0,-127.0,-4000.0,319.0,481.0,-4000.0
-95.0,149.0,-1152.0,-125.0,-4000.0,250.0,-575.0,-4000.0
-309.0,111.0,-1085.0,-25.0,-4000.0,180.0,-1165.0,-4000.0
-710.0,-88.0,-876.0,-59.0,-4000.0,25.0,-546.0,-4000.0
-631.0,-325.0,-622.0,7.0,-4000.0,-159.0,-88.0,-4000.0
-218.0,-340.0,-16.0,87.0,-4000.0,-316.0,-1.0,-4000.0
477.0,-134.0,450.0,221.0,-4000.0,-175.0,197.0,-4000.0
855.0,-20.0,540.0,320.0,-4000.0,107.0,832.0,-4000.0
758.0,23.0,728.0,240.0,-4000.0,477.0,1519.0,-4000.0
342.0,84.0,1438.0,280.0,-4000.0,896.0,2309.0,-3007.0
408.0,170.0,1314.0,142.0,-4000.0,1710.0,2514.0,4000.0
227.0,194.0,361.0,-116.0,-4000.0,2189.0,1866.0,4000.0
-35.0,150.0,-350.0,-255.0,-4000.0,1994.0,2647.0,4000.0
-135.0,117.0,-828.0,-229.0,-4000.0,1784.0,4000.0,4000.0
-286.0,60.0,-641.0,-89.0,-4000.0,1482.0,4000.0,4000.0
-206.0,67.0,-9.0,73.0,-4000.0,-485.0,4000.0,4000.0
-300.0,-11.0,914.0,205.0,-4000.0,-2774.0,4000.0,4000.0
-168.0,40.0,1503.0,191.0,-4000.0,-2673.0,4000.0,4000.0
-90.0,225.0,728.0,197.0,-4000.0,-3518.0,4000.0,-4000.0
247.0,209.0,-37.0,80.0,-4000.0,-2534.0,4000.0,-4000.0
379.0,114.0,-174.0,-40.0,-4000.0,-381.0,4000.0,-4000.0
104.0,21.0,741.0,2.0,-4000.0,-611.0,4000.0,-4000.0
618.0,140.0,2130.0,-4.0,-4000.0,133.0,4000.0,-4000.0
825.0,251.0,213.0,-1.0,-4000.0,7.0,4000.0,-4000.0
248.0,225.0,-2318.0,179.0,-4000.0,19.0,4000.0,-4000.0
-25.0,321.0,-2627.0,215.0,-2741.0,22.0,4000.0,-4000.0
-285.0,184.0,-2370.0,204.0,-2692.0,-175.0,3151.0,-4000.0
-457.0,25.0,-2123.0,209.0,-3378.0,248.0,823.0,-4000.0
51.0,-42.0,-1944.0,142.0,-1378.0,-110.0,-876.0,4000.0
877.0,-99.0,-971.0,96.0,4000.0,-1050.0,-2805.0,4000.0
652.0,-178.0,-16.0,-36.0,4000.0,-1604.0,-4000.0,4000.0
-631.0,-310.0,1452.0,-141.0,4000.0,-1118.0,-1136.0,4000.0
-1233.0,-318.0,2989.0,-155.0,4000.0,-507.0,4000.0,4000.0
-1300.0,-364.0,2730.0,-201.0,4000.0,455.0,4000.0,4000.0
-295.0,-326.0,152.0,-178.0,119.0,1488.0,4000.0,4000.0
1507.0,-248.0,-1362.0,67.0,-4000.0,2243.0,3917.0,4000.0
1037.0,-188.0,-1878.0,167.0,-4000.0,2629.0,-3196.0,4000.0
-423.0,-163.0,-976.0,80.0,-4000.0,2824.0,-4000.0,4000.0
-1233.0,-169.0,1423.0,-33.0,-4000.0,3072.0,-4000.0,4000.0
-2011.0,-64.0,937.0,-141.0,-4000.0,3345.0,-4000.0,2437.0
-901.0,156.0,-311.0,-63.0,-4000.0,3083.0,-4000.0,-4000.0
-62.0,247.0,-1348.0,-115.0,-4000.0,2243.0,-4000.0,-4000.0
104.0,260.0,-1613.0,-261.0,-4000.0,1994.0,-4000.0,-4000.0
61.0,388.0,-1427.0,-359.0,-3817.0,2110.0,-4000.0,-4000.0
-470.0,386.0,-1101.0,-365.0,-263.0,2124.0,-4000.0,-4000.0
-469.0,254.0,-198.0,-312.0,4000.0,2099.0,-4000.0,-4000.0
-566.0,15.0,-304.0,-206.0,4000.0,2176.0,-4000.0,-4000.0
-20.0,-190.0,-273.0,47.0,4000.0,2555.0,-4000.0,-3219.0
315.0,-318.0,203.0,209.0,4000.0,2971.0,-4000.0,4000.0
487.0,-402.0,-45.0,144.0,4000.0,3556.0,-4000.0,4000.0
713.0,-287.0,-64.0,118.0,4000.0,3981.0,-4000.0,4000.0
986.0,-137.0,1615.0,515.0,4000.0,4000.0,-4000.0,4000.0
804.0,-51.0,3369.0,785.0,4000.0,3901.0,-4000.0,4000.0
424.0,3.0,4000.0,626.0,4000.0,3018.0,-4000.0,4000.0
296.0,87.0,3369.0,233.0,4000.0,2775.0,-4000.0,4000.0
177.0,87.0,1416.0,-255.0,4000.0,2953.0,-4000.0,4000.0
719.0,-29.0,-560.0,-724.0,4000.0,2939.0,-4000.0,4000.0
1026.0,4.0,-2085.0,-849.0,4000.0,2706.0,-1702.0,4000.0
725.0,127.0,-2373.0,-540.0,4000.0,473.0,-33.0,4000.0
-92.0,98.0,-2073.0,-308.0,3346.0,-4000.0,2190.0,4000.0
-1045.0,-18.0,-906.0,-301.0,-4000.0,-4000.0,4000.0,4000.0
-1300.0,-75.0,760.0,-318.0,-4000.0,-4000.0,4000.0,4000.0
-1016.0,-92.0,2421.0,-273.0,-4000.0,-4000.0,4000.0,4000.0
-706.0,36.0,2018.0,-239.0,-4000.0,-4000.0,4000.0,3910.0
-12.0,118.0,872.0,-247.0,-4000.0,-4000.0,4000.0,3291.0
144.0,83.0,1119.0,-63.0,-4000.0,-4000.0,4000.0,3291.0
-541.0,-44.0,-23.0,115.0,1531.0,-4000.0,4000.0,4000.0
-945.0,-122.0,-2385.0,-62.0,4000.0,-4000.0,4000.0,4000.0
-706.0,-69.0,-2870.0,-198.0,4000.0,-4000.0,4000.0,4000.0
583.0,-27.0,-2021.0,-153.0,4000.0,-4000.0,3658.0,4000.0
2453.0,152.0,98.0,104.0,4000.0,-4000.0,652.0,4000.0
2536.0,318.0,2343.0,130.0,4000.0,-4000.0,-1637.0,-4000.0
351.0,341.0,2159.0,-90.0,4000.0,-4000.0,-2793.0,-4000.0
-974.0,200.0,1243.0,26.0,4000.0,-4000.0,-2994.0,-4000.0
-1365.0,58.0,15.0,347.0,4000.0,-4000.0,-3119.0,-4000.0
-1605.0,-31.0,415.0,695.0,4000.0,-1167.0,-3131.0,-4000.0
-1096.0,-59.0,1664.0,687.0,4000.0,4000.0,-3390.0,-4000.0
-220.0,20.0,1423.0,311.0,4000.0,4000.0,-3668.0,-4000.0
632.0,85.0,57.0,91.0,4000.0,4000.0,-3987.0,-4000.0
686.0,82.0,-1198.0,215.0,4000.0,4000.0,-4000.0,-4000.0
397.0,59.0,-711.0,305.0,4000.0,4000.0,-4000.0,680.0
73.0,-35.0,1228.0,207.0,4000.0,4000.0,-4000.0,210.0
44.0,-164.0,2352.0,-237.0,4000.0,4000.0,-4000.0,-1461.0
187.0,-59.0,1597.0,-523.0,4000.0,4000.0,-4000.0,-931.0
322.0,-18.0,-228.0,-487.0,4000.0,4000.0,-4000.0,955.0
430.0,-10.0,-1541.0,-401.0,4000.0,4000.0,-4000.0,1411.0
163.0,40.0,-931.0,-306.0,4000.0,4000.0,-4000.0,988.0
136.0,55.0,-2434.0,-344.0,4000.0,4000.0,-4000.0,2640.0
47.0,73.0,-3866.0,-206.0,4000.0,4000.0,-4000.0,3552.0
-168.0,-2.0,-3396.0,-102.0,4000.0,4000.0,-4000.0,2742.0
-266.0,26.0,-2835.0,30.0,4000.0,4000.0,-4000.0,-18.0
-309.0,30.0,-912.0,56.0,4000.0,4000.0,-4000.0,-1558.0
-311.0,-8.0,-187.0,55.0,4000.0,2438.0,-4000.0,-197.0
-260.0,-30.0,238.0,227.0,4000.0,-1032.0,-4000.0,-794.0
-99.0,-79.0,437.0,264.0,4000.0,-2608.0,-4000.0,-4000.0
97.0,-49.0,158.0,374.0,4000.0,-1701.0,-3326.0,-4000.0
212.0,-45.0,546.0,295.0,3788.0,-82.0,-2276.0,-4000.0
119.0,-74.0,2681.0,51.0,3493.0,1929.0,-927.0,-4000.0
-8.0,-81.0,4000.0,-147.0,3281.0,4000.0,537.0,-1829.0
-242.0,-67.0,3316.0,-296.0,1466.0,4000.0,1919.0,3390.0
-108.0,-72.0,4000.0,-300.0,-921.0,4000.0,3151.0,4000.0
268.0,-59.0,3575.0,-218.0,-2065.0,2125.0,4000.0,4000.0
184.0,-31.0,-1881.0,-255.0,-1685.0,1917.0,4000.0,4000.0
177.0,-20.0,-4000.0,-184.0,28.0,4000.0,4000.0,1727.0
447.0,-19.0,-4000.0,19.0,1824.0,4000.0,4000.0,1112.0
626.0,-11.0,-4000.0,81.0,3204.0,4000.0,4000.0,719.0
363.0,-4.0,-3407.0,245.0,2972.0,4000.0,4000.0,961.0
77.0,-43.0,-1694.0,313.0,2776.0,3680.0,4000.0,1195.0
-83.0,-38.0,-1273.0,203.0,2513.0,2230.0,4000.0,-2723.0
-321.0,4.0,-772.0,137.0,2321.0,1315.0,4000.0,-2296.0
-575.0,37.0,-167.0,223.0,2190.0,2308.0,4000.0,-714.0
-765.0,49.0,-1414.0,310.0,1248.0,4000.0,4000.0,-618.0
-710.0,40.0,-2123.0,228.0,-2224.0,4000.0,4000.0,1026.0
-453.0,33.0,-1341.0,103.0,-4000.0,4000.0,4000.0,1513.0
-258.0,26.0,-1843.0,122.0,-4000.0,1003.0,3607.0,2089.0
-357.0,20.0,-1785.0,164.0,-4000.0,-4000.0,2712.0,2901.0
-482.0,26.0,-425.0,467.0,-4000.0,-4000.0,1874.0,1207.0
-396.0,18.0,1414.0,559.0,-4000.0,-4000.0,726.0,4000.0
-229.0,-20.0,3186.0,-2.0,-4000.0,-4000.0,-1462.0,4000.0
371.0,-15.0,3677.0,-348.0,-4000.0,-4000.0,-4000.0,3788.0
1515.0,-26.0,2976.0,-772.0,-4000.0,-4000.0,-4000.0,3209.0
1130.0,-23.0,2030.0,-1006.0,-4000.0,-4000.0,-4000.0,-2230.0
-188.0,-21.0,1939.0,-855.0,-4000.0,-4000.0,-4000.0,-1208.0
-407.0,-31.0,2221.0,-633.0,-4000.0,-119.0,4000.0,3325.0
-909.0,-52.0,2211.0,-297.0,-4000.0,2775.0,4000.0,4000.0
-850.0,-74.0,2343.0,-41.0,-4000.0,4000.0,4000.0,4000.0
-620.0,-50.0,3119.0,164.0,-4000.0,1592.0,4000.0,4000.0
-453.0,-36.0,3497.0,74.0,-4000.0,-1876.0,4000.0,4000.0
-32.0,13.0,2681.0,226.0,-4000.0,-4000.0,4000.0,2689.0
65.0,20.0,2286.0,236.0,-4000.0,-4000.0,4000.0,1201.0
261.0,33.0,1237.0,37.0,-4000.0,-4000.0,4000.0,-454.0
232.0,44.0,-268.0,146.0,-4000.0,-2547.0,-176.0,2498.0
160.0,37.0,-696.0,190.0,-4000.0,2035.0,-4000.0,4000.0
111.0,22.0,-1134.0,305.0,-4000.0,4000.0,-4000.0,2624.0
294.0,25.0,-1294.0,86.0,-4000.0,4000.0,-3390.0,4000.0
582.0,55.0,-1214.0,-162.0,-4000.0,2230.0,-4000.0,3209.0
914.0,10.0,-906.0,-163.0,-4000.0,-1134.0,-4000.0,9.0
767.0,10.0,-825.0,-211.0,-4000.0,-3103.0,-4000.0,-1658.0
375.0,-2.0,-886.0,220.0,-4000.0,-4000.0,-4000.0,-2164.0
-118.0,-31.0,-932.0,258.0,-4000.0,-4000.0,-4000.0,-4000.0
-380.0,-12.0,-694.0,-484.0,-4000.0,-3698.0,-4000.0,-4000.0
-416.0,-1.0,35.0,-782.0,-4000.0,-2854.0,-3445.0,-4000.0
-535.0,17.0,118.0,-556.0,-4000.0,-1988.0,-2728.0,-4000.0
-238.0,26.0,212.0,-188.0,-4000.0,-1172.0,-2121.0,-4000.0
-82.0,49.0,137.0,19.0,-4000.0,-507.0,-2340.0,-3862.0
-21.0,55.0,39.0,22.0,-4000.0,-210.0,-2728.0,-4000.0
-323.0,34.0,35.0,63.0,-4000.0,-352.0,-3444.0,-4000.0
-518.0,21.0,129.0,134.0,-4000.0,-743.0,-4000.0,-4000.0
-386.0,40.0,301.0,309.0,-4000.0,-1598.0,-4000.0,-4000.0
-226.0,74.0,217.0,352.0,-4000.0,-2725.0,-4000.0,-4000.0
52.0,69.0,231.0,150.0,-4000.0,-3981.0,-4000.0,-4000.0
44.0,40.0,89.0,-10.0,-4000.0,-4000.0,-4000.0,-4000.0
20.0,30.0,72.0,193.0,-4000.0,-4000.0,-4000.0,-4000.0
96.0,0.0,8.0,400.0,-4000.0,-4000.0,-4000.0,-3581.0
71.0,-28.0,-59.0,459.0,-4000.0,-4000.0,-4000.0,-2995.0
60.0,-21.0,-93.0,236.0,-4000.0,-4000.0,-4000.0,-2022.0
149.0,-4.0,-95.0,84.0,-3836.0,-4000.0,-4000.0,-1120.0
212.0,-21.0,-66.0,393.0,-3539.0,-4000.0,-4000.0,662.0
250.0,-29.0,-99.0,642.0,-3262.0,-4000.0,-4000.0,2563.0
257.0,-9.0,-55.0,-39.0,-3042.0,-3639.0,-4000.0,3588.0
245.0,-7.0,-39.0,-956.0,-2209.0,-1943.0,-4000.0,3700.0
249.0,-5.0,-39.0,-719.0,-245.0,-680.0,-4000.0,1989.0
247.0,-30.0,-198.0,-604.0,1800.0,-743.0,-4000.0,-235.0
248.0,10.0,-214.0,-611.0,3493.0,-2351.0,-4000.0,-2584.0
203.0,26.0,-49.0,-350.0,4000.0,-4000.0,-4000.0,-4000.0
175.0,1.0,-29.0,-62.0,4000.0,-4000.0,-3261.0,-4000.0
125.0,1.0,-48.0,287.0,4000.0,-4000.0,202.0,-3734.0
72.0,-7.0,-23.0,756.0,4000.0,-4000.0,3282.0,-2186.0
65.0,1.0,-75.0,909.0,4000.0,-4000.0,4000.0,1704.0
-4.0,-15.0,-137.0,394.0,3215.0,-4000.0,4000.0,2507.0
-36.0,12.0,-66.0,-16.0,-2800.0,-3193.0,4000.0,2054.0
-8.0,26.0,19.0,-65.0,-4000.0,-741.0,4000.0,1989.0
-11.0,56.0,83.0,-40.0,-4000.0,145.0,4000.0,3849.0
-22.0,38.0,240.0,-38.0,-4000.0,858.0,4000.0,4000.0
-12.0,27.0,374.0,127.0,-4000.0,1720.0,4000.0,3788.0
-16.0,57.0,337.0,88.0,-4000.0,2243.0,4000.0,3600.0
-20.0,58.0,309.0,29.0,-4000.0,2824.0,4000.0,3328.0
-6.0,67.0,252.0,-78.0,-4000.0,3202.0,4000.0,2677.0
0.0,54.0,215.0,-442.0,-3689.0,3083.0,4000.0,1476.0
-10.0,72.0,280.0,-956.0,-3391.0,2759.0,4000.0,491.0
-29.0,50.0,309.0,-1146.0,-3132.0,2223.0,4000.0,802.0
-23.0,37.0,317.0,-687.0,-2870.0,1657.0,4000.0,1317.0
-18.0,50.0,284.0,-232.0,-2496.0,1639.0,4000.0,1586.0
-29.0,30.0,202.0,-38.0,-1064.0,2159.0,4000.0,1960.0
-27.0,55.0,-65.0,-259.0,855.0,2824.0,4000.0,1924.0
-20.0,51.0,-340.0,-250.0,3541.0,3604.0,4000.0,1859.0
-20.0,22.0,-263.0,171.0,4000.0,4000.0,4000.0,2225.0
-31.0,14.0,-112.0,974.0,4000.0,3853.0,4000.0,2354.0
-39.0,14.0,212.0,1234.0,4000.0,2759.0,4000.0,3079.0
-65.0,3.0,621.0,691.0,4000.0,1279.0,4000.0,3673.0
-93.0,-11.0,636.0,209.0,4000.0,-162.0,4000.0,3328.0
-109.0,-47.0,760.0,-54.0,4000.0,-1005.0,4000.0,2380.0
-107.0,-7.0,1285.0,88.0,4000.0,-1505.0,4000.0,1468.0
-96.0,23.0,1636.0,146.0,4000.0,-1550.0,4000.0,831.0
-84.0,7.0,1412.0,22.0,4000.0,-1717.0,3400.0,817.0
-15.0,-3.0,890.0,-68.0,4000.0,-1977.0,1866.0,783.0
-28.0,-45.0,828.0,-426.0,4000.0,-2113.0,656.0,357.0
-62.0,-34.0,624.0,-700.0,4000.0,-2400.0,-615.0,426.0
-36.0,-48.0,229.0,-532.0,4000.0,-2839.0,-1702.0,189.0
-35.0,-72.0,-328.0,-422.0,4000.0,-3453.0,-2451.0,238.0
-63.0,-114.0,-1093.0,-200.0,4000.0,-3010.0,-3050.0,308.0
-152.0,-151.0,-1192.0,26.0,4000.0,-1532.0,-3627.0,254.0
-207.0,-153.0,-1348.0,223.0,4000.0,-1734.0,-4000.0,361.0
-193.0,-109.0,-1390.0,551.0,4000.0,-2351.0,-4000.0,369.0
-215.0,-78.0,-1403.0,518.0,4000.0,-1896.0,-4000.0,426.0
-242.0,-89.0,-1388.0,538.0,4000.0,-1499.0,-4000.0,190.0
-232.0,-89.0,-1264.0,714.0,4000.0,-1135.0,-4000.0,-3.0
-117.0,-86.0,-1273.0,1144.0,4000.0,-219.0,-4000.0,-21.0
-48.0,-23.0,-1149.0,1542.0,3595.0,1201.0,-4000.0,38.0
7.0,-8.0,-1051.0,1189.0,2421.0,2230.0,-4000.0,-53.0
86.0,-18.0,-814.0,819.0,1071.0,3148.0,-4000.0,-56.0
202.0,-28.0,-626.0,96.0,660.0,3474.0,-4000.0,-252.0
424.0,4.0,-385.0,-234.0,725.0,4000.0,-4000.0,-665.0
241.0,37.0,-205.0,-393.0,745.0,4000.0,-4000.0,-618.0
-46.0,52.0,-149.0,-1044.0,692.0,4000.0,-4000.0,-254.0
-212.0,63.0,-63.0,-1207.0,60.0,4000.0,-4000.0,-13.0
-274.0,14.0,38.0,-1305.0,-1007.0,4000.0,-4000.0,63.0
-92.0,41.0,-11.0,-1421.0,-1731.0,4000.0,-4000.0,94.0
7.0,45.0,-120.0,-1477.0,-2887.0,3556.0,-4000.0,-267.0
147.0,64.0,-6.0,-1142.0,-3979.0,2425.0,-4000.0,-414.0
162.0,69.0,-4.0,-761.0,-4000.0,1601.0,-4000.0,-523.0
43.0,9.0,23.0,-584.0,-4000.0,571.0,-4000.0,-846.0
-50.0,-22.0,-77.0,-300.0,-3521.0,987.0,-4000.0,-796.0
-302.0,-45.0,-425.0,-206.0,-4000.0,1852.0,-4000.0,-447.0
-443.0,-65.0,-628.0,-130.0,-4000.0,1864.0,-3916.0,-523.0
-318.0,-76.0,-687.0,-54.0,-4000.0,1482.0,-3574.0,-794.0
-222.0,-26.0,-503.0,109.0,-4000.0,1482.0,-3390.0,-853.0
-160.0,-21.0,-425.0,164.0,-4000.0,2512.0,-3390.0,-1826.0
-95.0,0.0,-503.0,97.0,-4000.0,3148.0,-3379.0,-1859.0
-77.0,54.0,-393.0,93.0,-4000.0,3345.0,-3273.0,-1176.0
-77.0,22.0,-373.0,170.0,-4000.0,3202.0,-3106.0,-953.0
-73.0,1.0,-450.0,236.0,-4000.0,2824.0,-2675.0,-1469.0
4.0,38.0,-430.0,309.0,-4000.0,2450.0,-2577.0,-2114.0
108.0,95.0,-454.0,298.0,-4000.0,1669.0,-2288.0,-1534.0
204.0,82.0,-547.0,197.0,-4000.0,781.0,-2144.0,-1774.0
298.0,51.0,-515.0,262.0,-4000.0,70.0,-2186.0,-2611.0
408.0,49.0,-481.0,337.0,-4000.0,-358.0,-1851.0,-2617.0
627.0,20.0,-490.0,352.0,-2664.0,-672.0,-1781.0,-1820.0
725.0,0.0,-510.0,262.0,854.0,-600.0,-1700.0,-2584.0
564.0,4.0,-580.0,178.0,4000.0,-244.0,-1690.0,-3610.0
465.0,2.0,-625.0,168.0,4000.0,315.0,-1462.0,-2930.0
489.0,16.0,-561.0,110.0,4000.0,933.0,-1184.0,-1885.0
505.0,68.0,-515.0,21.0,4000.0,953.0,-678.0,-2004.0
387.0,89.0,-438.0,-78.0,4000.0,752.0,-252.0,-2491.0
235.0,98.0,-373.0,-126.0,4000.0,414.0,-341.0,-1782.0
169.0,73.0,-350.0,-69.0,4000.0,33.0,-134.0,-1925.0
37.0,38.0,-277.0,85.0,4000.0,-415.0,13.0,-1746.0
-193.0,58.0,-229.0,87.0,4000.0,-555.0,155.0,-1534.0
9.0,93.0,-269.0,162.0,4000.0,-204.0,394.0,-1469.0
920.0,105.0,-430.0,305.0,4000.0,-159.0,311.0,-889.0
772.0,124.0,-484.0,229.0,4000.0,64.0,139.0,-366.0
-1019.0,115.0,-454.0,142.0,4000.0,532.0,-49.0,-50.0
-1815.0,70.0,-324.0,19.0,4000.0,432.0,297.0,29.0
-1616.0,9.0,-63.0,-65.0,4000.0,433.0,995.0,1091.0
-1365.0,-68.0,169.0,-121.0,4000.0,921.0,1158.0,2302.0
-1479.0,-43.0,318.0,-172.0,4000.0,1824.0,832.0,3395.0
-1402.0,-36.0,432.0,-223.0,4000.0,2877.0,464.0,3588.0
-775.0,-75.0,480.0,-198.0,4000.0,3083.0,467.0,3723.0
-371.0,-56.0,303.0,-18.0,4000.0,2836.0,571.0,3806.0
-206.0,-77.0,134.0,47.0,4000.0,2694.0,832.0,3014.0
-228.0,-72.0,17.0,-107.0,4000.0,1929.0,1208.0,3328.0
56.0,-10.0,-178.0,-328.0,4000.0,929.0,1280.0,3198.0
55.0,18.0,-288.0,-442.0,4000.0,265.0,1396.0,3144.0
-29.0,49.0,-393.0,-637.0,4000.0,95.0,1064.0,3658.0
-86.0,55.0,-442.0,-745.0,4000.0,-84.0,554.0,3523.0
17.0,28.0,-389.0,-498.0,794.0,-297.0,376.0,3849.0
187.0,12.0,-479.0,-283.0,-2209.0,155.0,210.0,4000.0
239.0,-18.0,-580.0,-301.0,-4000.0,441.0,302.0,4000.0
366.0,-64.0,-580.0,-98.0,-4000.0,67.0,365.0,4000.0
473.0,-50.0,-643.0,356.0,-4000.0,-223.0,368.0,4000.0
837.0,20.0,-631.0,649.0,-4000.0,-345.0,266.0,4000.0
920.0,-20.0,-566.0,1045.0,-4000.0,-556.0,155.0,3996.0
1081.0,-69.0,-472.0,1294.0,-4000.0,-729.0,14.0,4000.0
920.0,-59.0,-175.0,1163.0,-4000.0,-855.0,-127.0,3719.0
406.0,-66.0,-79.0,889.0,-4000.0,-836.0,-84.0,3552.0
144.0,-57.0,-36.0,490.0,-4000.0,-920.0,-112.0,3853.0
-44.0,-85.0,-9.0,333.0,-4000.0,-1367.0,-100.0,3983.0
167.0,-109.0,-141.0,307.0,-4000.0,-1686.0,-36.0,4000.0
574.0,-94.0,-311.0,-131.0,-4000.0,-1636.0,113.0,4000.0
719.0,-141.0,-711.0,-373.0,-4000.0,-1097.0,170.0,3976.0
412.0,-114.0,-733.0,-323.0,-3079.0,-647.0,464.0,3458.0
300.0,-42.0,-217.0,-188.0,-2421.0,-1115.0,999.0,2835.0
228.0,-64.0,288.0,16.0,-1136.0,-1569.0,1630.0,2770.0
-176.0,-57.0,443.0,-46.0,1865.0,-1587.0,2226.0,2225.0
-341.0,-3.0,589.0,-16.0,4000.0,-1747.0,2505.0,1895.0
-407.0,41.0,785.0,-198.0,4000.0,-2209.0,2814.0,1704.0
-417.0,24.0,866.0,-279.0,3102.0,-2750.0,2843.0,1533.0
-428.0,12.0,1062.0,-225.0,4000.0,-3181.0,2746.0,1156.0
-632.0,10.0,1184.0,-247.0,4000.0,-3504.0,2505.0,247.0
-631.0,21.0,1285.0,-226.0,4000.0,-3128.0,2061.0,47.0
-489.0,37.0,1310.0,-427.0,4000.0,-2725.0,1825.0,2.0
-555.0,-12.0,1314.0,-421.0,4000.0,-2803.0,1711.0,-1061.0
-396.0,27.0,1257.0,-453.0,4000.0,-2338.0,1856.0,-1951.0
-354.0,60.0,1175.0,-565.0,4000.0,-1526.0,2061.0,-1681.0
-209.0,38.0,1184.0,-540.0,4000.0,-852.0,2255.0,-1921.0
220.0,53.0,1322.0,-328.0,4000.0,-145.0,2190.0,-1717.0
122.0,85.0,1387.0,-208.0,4000.0,175.0,1735.0,-1839.0
-215.0,83.0,1366.0,-48.0,4000.0,131.0,1141.0,-2350.0
-168.0,62.0,1371.0,81.0,4000.0,83.0,464.0,-2147.0
-113.0,74.0,1003.0,40.0,4000.0,232.0,-18.0,-1998.0
-59.0,77.0,517.0,54.0,4000.0,716.0,-408.0,-1213.0
