-142.0,-220.0,-157.0,-249.0,-153.0,-177.0,-224.0,-151.0
-123.0,-247.0,-169.0,-234.0,-183.0,-220.0,-244.0,-214.0
-142.0,-244.0,-163.0,-243.0,-155.0,-212.0,-219.0,-177.0
-156.0,-236.0,-157.0,-200.0,-162.0,-214.0,-247.0,-95.0
-148.0,-249.0,-161.0,-227.0,-153.0,-188.0,-226.0,-137.0
-150.0,-248.0,-153.0,-233.0,-144.0,-188.0,-202.0,-175.0
-142.0,-214.0,-161.0,-228.0,-134.0,-154.0,-186.0,-144.0
-132.0,-198.0,-147.0,-216.0,-124.0,-137.0,-149.0,-151.0
-111.0,-175.0,-138.0,-168.0,-93.0,-134.0,-154.0,-116.0
-97.0,-179.0,-124.0,-175.0,-55.0,-85.0,-137.0,-105.0
-82.0,-133.0,-95.0,-128.0,-44.0,-91.0,-120.0,-56.0
-42.0,-111.0,-79.0,-112.0,-34.0,-56.0,-62.0,-36.0
-50.0,-72.0,-67.0,-93.0,-16.0,-45.0,-33.0,-1.0
-24.0,-27.0,-61.0,-78.0,4.0,-8.0,-19.0,21.0
-1.0,-31.0,-45.0,-66.0,23.0,7.0,10.0,25.0
-10.0,7.0,-20.0,-13.0,44.0,20.0,22.0,49.0
5.0,26.0,1.0,-16.0,60.0,64.0,56.0,44.0
15.0,29.0,12.0,16.0,64.0,47.0,79.0,43.0
13.0,52.0,21.0,18.0,73.0,38.0,71.0,39.0
15.0,59.0,40.0,26.0,110.0,54.0,84.0,79.0
8.0,66.0,47.0,56.0,86.0,81.0,98.0,63.0
15.0,36.0,65.0,46.0,89.0,76.0,107.0,81.0
17.0,49.0,77.0,59.0,92.0,89.0,101.0,72.0
38.0,89.0,81.0,77.0,123.0,98.0,113.0,90.0
54.0,85.0,65.0,80.0,141.0,102.0,137.0,137.0
60.0,92.0,60.0,84.0,129.0,107.0,136.0,86.0
66.0,108.0,77.0,95.0,131.0,109.0,135.0,92.0
56.0,126.0,61.0,84.0,88.0,113.0,152.0,129.0
42.0,122.0,60.0,65.0,98.0,118.0,143.0,136.0
67.0,117.0,78.0,84.0,85.0,105.0,126.0,129.0
72.0,111.0,88.0,84.0,98.0,110.0,148.0,138.0
55.0,138.0,71.0,52.0,114.0,137.0,152.0,131.0
86.0,127.0,60.0,49.0,86.0,135.0,162.0,111.0
61.0,127.0,53.0,84.0,112.0,151.0,164.0,131.0
43.0,117.0,52.0,85.0,92.0,170.0,169.0,127.0
67.0,128.0,80.0,77.0,104.0,191.0,183.0,107.0
78.0,135.0,79.0,107.0,104.0,180.0,170.0,76.0
66.0,117.0,66.0,128.0,93.0,118.0,151.0,43.0
53.0,111.0,50.0,122.0,92.0,83.0,143.0,128.0
50.0,124.0,53.0,105.0,59.0,28.0,152.0,141.0
42.0,117.0,54.0,88.0,61.0,32.0,124.0,90.0
38.0,112.0,55.0,81.0,66.0,84.0,95.0,61.0
32.0,90.0,68.0,77.0,49.0,76.0,87.0,-9.0
25.0,58.0,53.0,51.0,34.0,81.0,72.0,40.0
33.0,66.0,54.0,11.0,37.0,69.0,48.0,59.0
9.0,67.0,34.0,28.0,34.0,54.0,67.0,117.0
7.0,82.0,13.0,7.0,26.0,42.0,59.0,212.0
-4.0,62.0,6.0,27.0,32.0,30.0,25.0,163.0
-9.0,48.0,5.0,27.0,23.0,52.0,27.0,144.0
18.0,47.0,19.0,11.0,23.0,27.0,35.0,59.0
-2.0,4.0,15.0,31.0,-1.0,4.0,38.0,-15.0
-2.0,4.0,21.0,22.0,11.0,-12.0,38.0,-74.0
-17.0,30.0,19.0,6.0,32.0,6.0,24.0,-161.0
-21.0,3.0,15.0,-23.0,28.0,28.0,20.0,-247.0
-10.0,18.0,4.0,-13.0,12.0,-17.0,37.0,-186.0
-20.0,21.0,-7.0,-1.0,41.0,-30.0,22.0,31.0
-4.0,19.0,-6.0,-12.0,56.0,20.0,38.0,-60.0
-2.0,13.0,-20.0,-12.0,23.0,35.0,43.0,112.0
-2.0,-8.0,-3.0,-1.0,23.0,28.0,20.0,286.0
3.0,3.0,1.0,-4.0,9.0,36.0,13.0,131.0
-4.0,-8.0,-7.0,-3.0,21.0,56.0,29.0,198.0
-5.0,1.0,-5.0,11.0,-14.0,102.0,35.0,60.0
-2.0,2.0,-9.0,-2.0,9.0,73.0,28.0,-50.0
-12.0,-20.0,-22.0,-17.0,41.0,53.0,30.0,-43.0
-24.0,-19.0,-48.0,-21.0,30.0,57.0,34.0,-152.0
0.0,-8.0,-26.0,-26.0,55.0,7.0,18.0,-395.0
-1.0,-19.0,-21.0,-21.0,68.0,1.0,9.0,-203.0
-16.0,-37.0,-1.0,-31.0,75.0,-3.0,16.0,489.0
-19.0,1.0,-7.0,-44.0,50.0,-10.0,25.0,397.0
-16.0,-18.0,-30.0,-30.0,45.0,-30.0,21.0,271.0
-23.0,-34.0,-14.0,-28.0,66.0,1.0,6.0,156.0
-22.0,-5.0,-20.0,-14.0,72.0,26.0,-3.0,-168.0
-24.0,-6.0,-43.0,-15.0,76.0,40.0,-10.0,-199.0
-13.0,-26.0,-50.0,-21.0,78.0,54.0,9.0,-650.0
-11.0,-19.0,-25.0,-44.0,55.0,4.0,-6.0,-993.0
-14.0,-16.0,-29.0,-57.0,34.0,-12.0,-16.0,-480.0
-29.0,-30.0,-33.0,-31.0,34.0,-6.0,16.0,119.0
-29.0,-24.0,-8.0,-23.0,3.0,-16.0,0.0,44.0
-25.0,-28.0,-21.0,-37.0,-7.0,-6.0,-32.0,129.0
-29.0,-8.0,-36.0,-40.0,8.0,16.0,-16.0,129.0
-2.0,1.0,-31.0,-11.0,0.0,26.0,-7.0,71.0
-26.0,1.0,-35.0,-23.0,17.0,45.0,18.0,153.0
-5.0,30.0,-12.0,-14.0,37.0,30.0,23.0,77.0
23.0,29.0,-30.0,-44.0,11.0,9.0,14.0,124.0
-12.0,4.0,-41.0,-52.0,-2.0,14.0,12.0,60.0
4.0,22.0,-24.0,-39.0,31.0,-8.0,29.0,92.0
13.0,20.0,-30.0,-40.0,35.0,15.0,58.0,33.0
-22.0,4.0,20.0,-15.0,63.0,19.0,34.0,7.0
-23.0,5.0,3.0,-25.0,61.0,59.0,20.0,70.0
-17.0,-15.0,7.0,-36.0,65.0,69.0,16.0,98.0
-11.0,-24.0,30.0,-15.0,53.0,40.0,30.0,153.0
-5.0,-13.0,11.0,-14.0,17.0,65.0,10.0,141.0
-9.0,3.0,17.0,-15.0,50.0,48.0,26.0,210.0
-24.0,-1.0,-17.0,-17.0,61.0,77.0,45.0,165.0
-16.0,-23.0,-10.0,-14.0,41.0,99.0,20.0,66.0
-12.0,-5.0,-17.0,10.0,30.0,87.0,58.0,47.0
-8.0,1.0,-26.0,0.0,28.0,76.0,27.0,33.0
7.0,0.0,-14.0,18.0,18.0,54.0,20.0,59.0
-6.0,16.0,-28.0,-1.0,32.0,82.0,50.0,39.0
-4.0,23.0,-3.0,-3.0,52.0,100.0,46.0,-11.0
-1.0,26.0,-1.0,16.0,46.0,84.0,55.0,11.0
-10.0,23.0,10.0,-7.0,44.0,87.0,18.0,6.0
-16.0,4.0,-21.0,1.0,29.0,107.0,36.0,5.0
-13.0,-18.0,-52.0,-2.0,4.0,124.0,28.0,5.0
-19.0,20.0,3.0,-9.0,18.0,90.0,-8.0,-4.0
-28.0,15.0,7.0,-26.0,27.0,50.0,-6.0,14.0
-24.0,-2.0,-7.0,-27.0,13.0,68.0,10.0,-13.0
-22.0,4.0,-20.0,-30.0,24.0,37.0,3.0,-9.0
-30.0,-30.0,-18.0,-37.0,11.0,48.0,-6.0,-11.0
-21.0,1.0,-15.0,-21.0,15.0,42.0,4.0,-13.0
-22.0,-11.0,-17.0,-15.0,25.0,-17.0,16.0,-36.0
-18.0,-10.0,1.0,-1.0,-12.0,0.0,15.0,-62.0
6.0,8.0,-14.0,-14.0,-11.0,-42.0,-1.0,59.0
3.0,-22.0,9.0,-19.0,-4.0,-69.0,18.0,61.0
-4.0,-17.0,5.0,-21.0,18.0,4.0,12.0,-8.0
-14.0,-20.0,3.0,-33.0,28.0,16.0,25.0,10.0
-6.0,-15.0,11.0,-8.0,32.0,28.0,21.0,-11.0
-5.0,-12.0,20.0,-33.0,34.0,50.0,36.0,-1.0
-37.0,-22.0,-17.0,-39.0,21.0,26.0,24.0,13.0
-25.0,-4.0,-14.0,-25.0,20.0,39.0,21.0,23.0
-8.0,-5.0,15.0,-41.0,14.0,37.0,44.0,22.0
-5.0,-15.0,-7.0,-53.0,16.0,3.0,30.0,-10.0
-10.0,-16.0,0.0,-49.0,-1.0,-11.0,17.0,-2.0
-34.0,-18.0,-8.0,-40.0,31.0,4.0,-1.0,3.0
-2.0,-31.0,-2.0,-29.0,45.0,-24.0,6.0,14.0
-19.0,-23.0,1.0,-25.0,17.0,-23.0,-3.0,33.0
-32.0,-27.0,-22.0,-44.0,49.0,-17.0,-8.0,0.0
-26.0,-14.0,-21.0,-59.0,28.0,-39.0,-18.0,8.0
-33.0,0.0,-1.0,-24.0,44.0,1.0,21.0,32.0
-9.0,-5.0,6.0,-2.0,39.0,9.0,26.0,40.0
-9.0,7.0,3.0,-5.0,44.0,0.0,26.0,53.0
6.0,10.0,8.0,1.0,56.0,13.0,50.0,54.0
7.0,12.0,5.0,-7.0,35.0,29.0,19.0,53.0
22.0,11.0,-4.0,-1.0,49.0,21.0,35.0,29.0
37.0,5.0,6.0,-9.0,32.0,16.0,16.0,-3.0
15.0,0.0,3.0,18.0,23.0,-10.0,24.0,-37.0
7.0,11.0,-1.0,11.0,14.0,-34.0,32.0,35.0
-4.0,14.0,6.0,12.0,28.0,-40.0,36.0,63.0
12.0,45.0,15.0,28.0,29.0,-122.0,58.0,23.0
5.0,9.0,3.0,9.0,19.0,-71.0,41.0,35.0
3.0,28.0,-9.0,0.0,19.0,-16.0,47.0,-50.0
2.0,34.0,-3.0,2.0,18.0,-26.0,40.0,-52.0
-31.0,11.0,-13.0,2.0,26.0,4.0,50.0,174.0
-16.0,0.0,-11.0,-5.0,1.0,-37.0,56.0,417.0
-8.0,-4.0,-17.0,-19.0,-10.0,-24.0,22.0,397.0
0.0,27.0,-18.0,-34.0,1.0,-18.0,32.0,329.0
-15.0,-2.0,-6.0,-12.0,-5.0,-10.0,36.0,264.0
-8.0,6.0,-15.0,-26.0,5.0,-10.0,42.0,46.0
0.0,-2.0,-13.0,-42.0,-2.0,-12.0,23.0,-216.0
-21.0,-14.0,-27.0,-39.0,-34.0,9.0,12.0,-521.0
7.0,-20.0,-26.0,-43.0,-14.0,-14.0,16.0,-973.0
17.0,-10.0,-29.0,-35.0,-12.0,-14.0,-1.0,-809.0
-1.0,17.0,-14.0,-9.0,-30.0,0.0,18.0,5.0
-6.0,-1.0,-16.0,-2.0,-15.0,17.0,17.0,-7.0
4.0,8.0,-11.0,-29.0,-7.0,45.0,28.0,47.0
-5.0,-5.0,-15.0,-54.0,-2.0,58.0,29.0,143.0
-10.0,4.0,-5.0,-38.0,-8.0,24.0,27.0,5.0
-9.0,18.0,5.0,-9.0,4.0,42.0,17.0,120.0
-8.0,16.0,-20.0,-23.0,18.0,41.0,-10.0,13.0
-21.0,-3.0,1.0,-12.0,17.0,25.0,-2.0,87.0
-10.0,-16.0,3.0,-17.0,-15.0,50.0,-17.0,53.0
-1.0,5.0,-10.0,-26.0,-1.0,47.0,0.0,56.0
-8.0,13.0,-10.0,-21.0,15.0,44.0,7.0,19.0
-9.0,7.0,15.0,-20.0,14.0,93.0,5.0,67.0
-29.0,20.0,10.0,-3.0,-4.0,84.0,20.0,123.0
-11.0,22.0,10.0,-4.0,-43.0,56.0,10.0,58.0
-9.0,15.0,15.0,12.0,-7.0,71.0,16.0,108.0
-28.0,-12.0,-10.0,-5.0,-7.0,78.0,4.0,66.0
-7.0,-32.0,-17.0,-17.0,19.0,94.0,6.0,71.0
-16.0,-12.0,10.0,-22.0,9.0,92.0,41.0,30.0
2.0,0.0,12.0,-30.0,7.0,61.0,44.0,58.0
-2.0,-15.0,-9.0,-35.0,79.0,51.0,45.0,51.0
-18.0,-3.0,-11.0,-32.0,67.0,89.0,30.0,44.0
-25.0,9.0,-18.0,-16.0,47.0,83.0,23.0,15.0
-32.0,-33.0,-24.0,-28.0,47.0,88.0,37.0,12.0
-16.0,-30.0,-20.0,-2.0,28.0,67.0,29.0,9.0
-10.0,-12.0,-25.0,-16.0,21.0,44.0,-6.0,-31.0
-11.0,-35.0,-2.0,-3.0,32.0,50.0,17.0,51.0
-13.0,-21.0,14.0,12.0,35.0,24.0,28.0,2.0
-14.0,-14.0,6.0,-15.0,16.0,29.0,14.0,33.0
-40.0,18.0,3.0,2.0,25.0,19.0,24.0,59.0
-19.0,23.0,-13.0,2.0,3.0,25.0,17.0,-5.0
-27.0,16.0,1.0,-23.0,19.0,42.0,36.0,8.0
-18.0,33.0,-16.0,-31.0,41.0,22.0,-8.0,6.0
-41.0,20.0,-20.0,-50.0,47.0,21.0,16.0,-3.0
-43.0,7.0,10.0,-29.0,29.0,5.0,25.0,-18.0
-32.0,4.0,-1.0,-39.0,12.0,23.0,18.0,25.0
-22.0,5.0,-11.0,-72.0,19.0,8.0,15.0,41.0
-8.0,-4.0,-20.0,-64.0,21.0,10.0,3.0,24.0
-40.0,2.0,-1.0,-47.0,23.0,27.0,20.0,32.0
-23.0,1.0,-5.0,-33.0,28.0,21.0,2.0,27.0
-7.0,-5.0,-12.0,-42.0,23.0,37.0,3.0,31.0
5.0,12.0,0.0,-13.0,32.0,24.0,10.0,43.0
-3.0,27.0,-3.0,-10.0,47.0,23.0,30.0,70.0
1.0,43.0,27.0,-11.0,26.0,-35.0,30.0,60.0
15.0,39.0,21.0,3.0,18.0,-30.0,49.0,50.0
31.0,34.0,26.0,15.0,21.0,-19.0,41.0,53.0
31.0,49.0,15.0,-7.0,29.0,-23.0,16.0,51.0
16.0,50.0,18.0,-11.0,22.0,46.0,37.0,100.0
-1.0,44.0,41.0,6.0,21.0,48.0,25.0,104.0
8.0,41.0,30.0,-5.0,33.0,33.0,24.0,131.0
-1.0,18.0,24.0,18.0,30.0,37.0,32.0,141.0
-1.0,40.0,12.0,0.0,41.0,41.0,38.0,78.0
6.0,41.0,1.0,9.0,26.0,49.0,27.0,29.0
-8.0,19.0,-7.0,-3.0,13.0,62.0,31.0,30.0
4.0,40.0,11.0,-45.0,44.0,51.0,43.0,53.0
-18.0,38.0,19.0,-28.0,50.0,50.0,18.0,58.0
-25.0,18.0,10.0,-28.0,21.0,42.0,32.0,67.0
-11.0,-23.0,1.0,-17.0,-12.0,33.0,30.0,95.0
-23.0,-30.0,-17.0,-19.0,-38.0,29.0,36.0,138.0
-4.0,-14.0,-26.0,1.0,-40.0,40.0,35.0,184.0
3.0,1.0,-14.0,-7.0,7.0,37.0,30.0,261.0
-10.0,1.0,-5.0,-7.0,24.0,8.0,30.0,235.0
1.0,5.0,-18.0,-33.0,1.0,40.0,29.0,136.0
1.0,31.0,-14.0,-41.0,-8.0,66.0,41.0,53.0
9.0,16.0,-5.0,7.0,-20.0,74.0,42.0,-51.0
5.0,-1.0,9.0,25.0,-11.0,37.0,24.0,-25.0
4.0,-2.0,-17.0,22.0,-19.0,-2.0,8.0,-55.0
-32.0,-4.0,-29.0,7.0,8.0,-20.0,28.0,-175.0
-58.0,-31.0,-38.0,-19.0,37.0,-55.0,33.0,21.0
-35.0,-32.0,-49.0,-31.0,-9.0,-27.0,23.0,144.0
-45.0,-33.0,-23.0,6.0,15.0,-36.0,-5.0,-5.0
-23.0,-36.0,-28.0,-17.0,39.0,-37.0,12.0,-48.0
-11.0,-20.0,-16.0,-12.0,41.0,-7.0,28.0,-175.0
-19.0,-2.0,-11.0,-11.0,35.0,7.0,20.0,-492.0
-36.0,14.0,-14.0,-28.0,43.0,7.0,15.0,-543.0
-10.0,-7.0,-32.0,-17.0,86.0,-14.0,34.0,-75.0
15.0,13.0,-22.0,-16.0,94.0,-6.0,62.0,100.0
-9.0,17.0,-2.0,50.0,82.0,-17.0,51.0,48.0
-7.0,20.0,1.0,5.0,46.0,-32.0,62.0,125.0
-9.0,13.0,-1.0,-23.0,34.0,-47.0,40.0,71.0
-8.0,28.0,-6.0,-1.0,42.0,-19.0,40.0,100.0
-2.0,16.0,-1.0,-5.0,77.0,-33.0,37.0,35.0
-16.0,-11.0,-8.0,-4.0,96.0,-64.0,25.0,63.0
2.0,14.0,-2.0,12.0,69.0,-66.0,30.0,86.0
6.0,3.0,-13.0,35.0,61.0,-65.0,26.0,29.0
-36.0,12.0,0.0,21.0,24.0,-8.0,30.0,66.0
13.0,11.0,7.0,-9.0,14.0,4.0,51.0,31.0
14.0,18.0,-13.0,-28.0,19.0,25.0,38.0,-36.0
-18.0,31.0,-13.0,-4.0,10.0,21.0,32.0,-96.0
9.0,21.0,-15.0,-11.0,22.0,-24.0,40.0,-32.0
-4.0,5.0,-7.0,-35.0,7.0,-25.0,5.0,-40.0
-4.0,-27.0,-4.0,-43.0,5.0,-30.0,8.0,-32.0
-21.0,-16.0,-11.0,-32.0,-19.0,-20.0,-11.0,-14.0
-17.0,-21.0,-10.0,-26.0,-25.0,-12.0,-25.0,5.0
-29.0,-19.0,-24.0,-40.0,28.0,-4.0,4.0,165.0
-29.0,-10.0,-26.0,-30.0,41.0,-11.0,-3.0,322.0
0.0,-19.0,1.0,-34.0,36.0,5.0,-19.0,383.0
-21.0,-2.0,-8.0,-38.0,15.0,22.0,-30.0,290.0
-21.0,0.0,-5.0,-38.0,2.0,7.0,-20.0,242.0
-4.0,-13.0,20.0,-28.0,3.0,36.0,-14.0,38.0
-19.0,1.0,-15.0,-16.0,7.0,45.0,-4.0,-279.0
-9.0,6.0,-4.0,-25.0,19.0,58.0,30.0,-442.0
29.0,-15.0,-12.0,-43.0,14.0,69.0,11.0,-720.0
13.0,-13.0,-36.0,-23.0,0.0,76.0,-12.0,-914.0
3.0,-26.0,-21.0,9.0,5.0,86.0,32.0,-340.0
7.0,-6.0,0.0,-2.0,20.0,76.0,45.0,96.0
10.0,23.0,1.0,-21.0,36.0,86.0,43.0,-63.0
23.0,20.0,4.0,-16.0,50.0,94.0,65.0,142.0
17.0,11.0,18.0,-5.0,37.0,91.0,32.0,116.0
3.0,16.0,0.0,1.0,69.0,65.0,55.0,99.0
-5.0,38.0,28.0,20.0,41.0,1.0,44.0,127.0
-12.0,40.0,16.0,-4.0,36.0,-49.0,24.0,71.0
-30.0,3.0,-4.0,-9.0,65.0,18.0,25.0,158.0
-7.0,-30.0,-10.0,-9.0,64.0,45.0,-13.0,65.0
-4.0,-5.0,-26.0,-38.0,86.0,36.0,2.0,83.0
-9.0,-5.0,15.0,-12.0,38.0,53.0,20.0,60.0
-12.0,-40.0,7.0,-16.0,26.0,31.0,34.0,49.0
-27.0,-3.0,6.0,-23.0,32.0,61.0,21.0,29.0
5.0,-14.0,9.0,-2.0,40.0,56.0,23.0,33.0
3.0,-18.0,8.0,-13.0,65.0,74.0,-3.0,63.0
-13.0,-8.0,18.0,17.0,34.0,78.0,5.0,54.0
-29.0,4.0,9.0,18.0,22.0,88.0,36.0,81.0
1.0,27.0,2.0,-6.0,26.0,69.0,13.0,35.0
7.0,-20.0,-18.0,-15.0,9.0,47.0,30.0,16.0
-18.0,7.0,-26.0,-3.0,19.0,50.0,15.0,6.0
5.0,-3.0,-14.0,-23.0,38.0,28.0,0.0,20.0
-17.0,-23.0,-26.0,-26.0,27.0,30.0,21.0,22.0
-9.0,-6.0,-26.0,-10.0,30.0,26.0,51.0,15.0
-2.0,-18.0,-1.0,-30.0,27.0,37.0,31.0,2.0
-7.0,4.0,-26.0,-35.0,33.0,-12.0,6.0,-6.0
12.0,5.0,-21.0,-24.0,4.0,11.0,20.0,16.0
-24.0,18.0,6.0,-34.0,20.0,102.0,10.0,36.0
-24.0,-6.0,-26.0,-32.0,25.0,46.0,-4.0,46.0
-19.0,-21.0,-35.0,-39.0,6.0,6.0,0.0,17.0
-27.0,9.0,-37.0,-46.0,40.0,8.0,38.0,21.0
0.0,-14.0,-22.0,-25.0,6.0,-26.0,35.0,-2.0
-11.0,-4.0,-18.0,-29.0,6.0,-13.0,39.0,-91.0
-8.0,18.0,-25.0,-26.0,19.0,27.0,49.0,-175.0
16.0,19.0,-16.0,-16.0,-5.0,0.0,35.0,-117.0
-5.0,27.0,-13.0,-9.0,0.0,-12.0,42.0,-8.0
-10.0,38.0,-4.0,-19.0,41.0,37.0,59.0,1.0
-1.0,30.0,12.0,-18.0,44.0,39.0,53.0,83.0
-4.0,32.0,10.0,-28.0,2.0,48.0,42.0,160.0
-1.0,27.0,-15.0,-17.0,11.0,40.0,29.0,104.0
-3.0,0.0,-16.0,-24.0,26.0,24.0,29.0,60.0
-9.0,-7.0,10.0,-26.0,5.0,35.0,37.0,30.0
-12.0,-5.0,-3.0,-11.0,-5.0,25.0,3.0,-13.0
-17.0,-4.0,-13.0,-16.0,1.0,47.0,9.0,8.0
1.0,-3.0,-28.0,7.0,-1.0,34.0,46.0,54.0
-5.0,17.0,-8.0,-23.0,-23.0,36.0,40.0,56.0
-19.0,15.0,17.0,-13.0,-11.0,26.0,30.0,38.0
0.0,-9.0,-2.0,-26.0,17.0,41.0,21.0,-8.0
-16.0,3.0,0.0,-35.0,1.0,67.0,15.0,38.0
2.0,10.0,-17.0,-41.0,0.0,38.0,6.0,82.0
16.0,2.0,-17.0,-24.0,-2.0,40.0,43.0,24.0
4.0,-13.0,10.0,-11.0,5.0,49.0,18.0,10.0
-8.0,-38.0,10.0,-38.0,-14.0,38.0,13.0,31.0
-3.0,-24.0,-2.0,-10.0,-15.0,38.0,34.0,43.0
-16.0,-1.0,-1.0,-33.0,-4.0,37.0,16.0,38.0
-21.0,-20.0,-3.0,-14.0,-3.0,49.0,25.0,35.0
-2.0,1.0,20.0,-4.0,30.0,76.0,53.0,69.0
-16.0,2.0,28.0,2.0,53.0,58.0,59.0,181.0
21.0,-11.0,16.0,16.0,47.0,73.0,13.0,288.0
1.0,14.0,10.0,-2.0,46.0,79.0,22.0,165.0
-3.0,19.0,-4.0,5.0,45.0,92.0,36.0,129.0
-5.0,12.0,11.0,13.0,37.0,98.0,24.0,75.0
-20.0,-6.0,1.0,3.0,60.0,67.0,42.0,-31.0
0.0,-4.0,-5.0,-7.0,39.0,24.0,22.0,-65.0
-22.0,-3.0,16.0,-10.0,35.0,-30.0,3.0,-301.0
-27.0,12.0,5.0,-1.0,24.0,-29.0,10.0,-518.0
-20.0,-1.0,4.0,-5.0,17.0,-33.0,5.0,-276.0
10.0,-12.0,30.0,-6.0,33.0,21.0,20.0,124.0
-1.0,29.0,24.0,10.0,65.0,56.0,21.0,53.0
-11.0,30.0,24.0,16.0,77.0,58.0,46.0,111.0
-1.0,37.0,4.0,16.0,43.0,51.0,43.0,104.0
-10.0,18.0,-1.0,8.0,60.0,18.0,43.0,32.0
-4.0,17.0,16.0,-19.0,62.0,4.0,58.0,78.0
-18.0,18.0,9.0,6.0,28.0,-1.0,47.0,43.0
-18.0,11.0,-7.0,6.0,7.0,20.0,30.0,130.0
-20.0,10.0,-25.0,-21.0,43.0,50.0,-8.0,74.0
-29.0,1.0,-37.0,-22.0,38.0,46.0,4.0,103.0
-41.0,23.0,-30.0,-24.0,22.0,-7.0,22.0,236.0
-36.0,10.0,-8.0,-26.0,36.0,12.0,24.0,230.0
-27.0,17.0,-36.0,-33.0,14.0,29.0,24.0,62.0
-25.0,18.0,-6.0,-22.0,9.0,8.0,48.0,44.0
-36.0,9.0,14.0,-16.0,5.0,6.0,32.0,14.0
-13.0,23.0,-29.0,-26.0,8.0,0.0,25.0,-81.0
-17.0,17.0,-14.0,-31.0,14.0,-6.0,29.0,-183.0
-40.0,-3.0,-36.0,-42.0,22.0,-32.0,16.0,-360.0
-30.0,-31.0,-28.0,-12.0,27.0,-32.0,27.0,-183.0
-5.0,-35.0,-19.0,-3.0,22.0,-33.0,21.0,42.0
-15.0,-18.0,-19.0,1.0,5.0,-42.0,18.0,56.0
-29.0,7.0,-6.0,1.0,24.0,-30.0,-3.0,70.0
-14.0,-6.0,-17.0,-17.0,27.0,-29.0,-8.0,79.0
-20.0,-9.0,-13.0,-19.0,19.0,-26.0,4.0,145.0
-17.0,-19.0,-12.0,-21.0,7.0,-19.0,17.0,304.0
-11.0,-20.0,14.0,-23.0,-9.0,4.0,3.0,367.0
5.0,-14.0,0.0,-34.0,49.0,23.0,10.0,369.0
6.0,-30.0,-2.0,-13.0,33.0,24.0,28.0,358.0
-10.0,3.0,7.0,-13.0,18.0,29.0,27.0,200.0
12.0,6.0,8.0,-16.0,52.0,13.0,39.0,62.0
-1.0,5.0,29.0,-14.0,23.0,10.0,17.0,-163.0
14.0,4.0,24.0,-11.0,37.0,25.0,7.0,-557.0
31.0,6.0,5.0,-8.0,35.0,63.0,28.0,-671.0
4.0,38.0,26.0,-9.0,40.0,69.0,46.0,-366.0
21.0,50.0,1.0,2.0,47.0,78.0,37.0,-242.0
3.0,26.0,-29.0,-25.0,35.0,79.0,35.0,-44.0
-5.0,3.0,-25.0,-25.0,42.0,36.0,28.0,170.0
-20.0,1.0,-26.0,-22.0,26.0,35.0,-4.0,62.0
-9.0,8.0,-18.0,-23.0,10.0,33.0,0.0,153.0
-1.0,-11.0,-39.0,-9.0,-4.0,39.0,4.0,104.0
-18.0,-16.0,-35.0,-5.0,26.0,27.0,12.0,132.0
10.0,12.0,-22.0,2.0,4.0,23.0,45.0,143.0
24.0,5.0,-13.0,10.0,-9.0,23.0,29.0,83.0
7.0,14.0,3.0,-15.0,12.0,0.0,2.0,124.0
-7.0,13.0,-24.0,-19.0,-26.0,9.0,15.0,105.0
14.0,8.0,-28.0,-14.0,-27.0,6.0,19.0,135.0
-21.0,30.0,-6.0,-12.0,14.0,38.0,10.0,67.0
-16.0,36.0,-10.0,0.0,20.0,25.0,16.0,103.0
-7.0,32.0,1.0,-26.0,14.0,-30.0,-3.0,90.0
-12.0,-5.0,-14.0,-34.0,37.0,-47.0,5.0,68.0
-14.0,-13.0,-13.0,-25.0,28.0,2.0,50.0,78.0
-28.0,16.0,11.0,-18.0,23.0,37.0,22.0,38.0
-6.0,4.0,-13.0,-5.0,7.0,10.0,19.0,15.0
-32.0,5.0,-8.0,-30.0,1.0,3.0,23.0,1.0
-28.0,7.0,6.0,-41.0,21.0,-14.0,5.0,25.0
-12.0,3.0,29.0,-19.0,18.0,30.0,35.0,26.0
-25.0,-1.0,36.0,-31.0,54.0,38.0,45.0,18.0
-17.0,-7.0,4.0,-49.0,52.0,47.0,20.0,2.0
-32.0,8.0,-5.0,-34.0,5.0,49.0,54.0,23.0
-25.0,-18.0,2.0,-11.0,42.0,11.0,45.0,-26.0
-9.0,-10.0,-5.0,1.0,40.0,66.0,11.0,-2.0
-4.0,-7.0,-2.0,4.0,30.0,42.0,43.0,53.0
5.0,17.0,2.0,16.0,19.0,6.0,21.0,-1.0
-25.0,29.0,-5.0,21.0,12.0,-27.0,54.0,22.0
-21.0,16.0,-3.0,11.0,6.0,-25.0,40.0,1.0
-16.0,29.0,8.0,12.0,5.0,24.0,32.0,18.0
-24.0,-10.0,-1.0,5.0,20.0,1.0,42.0,-19.0
-1.0,-23.0,-15.0,4.0,9.0,37.0,14.0,-36.0
9.0,-9.0,-18.0,-1.0,24.0,75.0,16.0,3.0
2.0,5.0,5.0,-43.0,8.0,59.0,13.0,-6.0
-7.0,17.0,39.0,-30.0,16.0,30.0,26.0,7.0
10.0,12.0,6.0,-19.0,30.0,10.0,29.0,-18.0
-5.0,19.0,0.0,-35.0,-16.0,1.0,31.0,-7.0
-4.0,26.0,-21.0,-20.0,0.0,-5.0,34.0,-15.0
29.0,31.0,-14.0,-1.0,17.0,29.0,30.0,-22.0
6.0,23.0,4.0,-1.0,18.0,1.0,36.0,-14.0
-13.0,19.0,-25.0,-18.0,23.0,-19.0,29.0,5.0
4.0,15.0,-1.0,-7.0,13.0,23.0,14.0,-3.0
-5.0,-8.0,-15.0,-11.0,-8.0,16.0,8.0,-5.0
-3.0,5.0,-21.0,-9.0,23.0,31.0,28.0,17.0
4.0,46.0,-8.0,-9.0,35.0,11.0,46.0,63.0
-25.0,23.0,-2.0,-19.0,26.0,-59.0,25.0,63.0
-14.0,9.0,-5.0,-34.0,23.0,-49.0,-6.0,-4.0
-9.0,4.0,-8.0,-36.0,-3.0,53.0,36.0,-14.0
-15.0,13.0,6.0,-10.0,36.0,64.0,42.0,-13.0
-1.0,5.0,13.0,-8.0,23.0,62.0,14.0,-2.0
-1.0,15.0,0.0,-30.0,35.0,76.0,15.0,-14.0
-12.0,40.0,-24.0,-29.0,31.0,40.0,39.0,-15.0
2.0,-1.0,3.0,-22.0,26.0,57.0,44.0,-10.0
6.0,2.0,-3.0,-28.0,44.0,23.0,22.0,-17.0
-6.0,-10.0,-11.0,-6.0,35.0,41.0,26.0,-24.0
-6.0,1.0,-2.0,9.0,56.0,53.0,5.0,16.0
-8.0,12.0,-22.0,4.0,43.0,51.0,14.0,99.0
5.0,-19.0,11.0,16.0,29.0,58.0,32.0,7.0
-17.0,-25.0,-14.0,10.0,34.0,46.0,31.0,-5.0
-34.0,-37.0,4.0,-6.0,34.0,54.0,36.0,18.0
-27.0,-4.0,19.0,0.0,29.0,40.0,28.0,-7.0
7.0,-11.0,8.0,13.0,36.0,57.0,35.0,33.0
5.0,-10.0,-2.0,-4.0,33.0,61.0,8.0,-6.0
-3.0,11.0,-7.0,-33.0,17.0,46.0,-7.0,-13.0
1.0,-8.0,12.0,-23.0,39.0,64.0,26.0,1.0
-3.0,-10.0,-14.0,-39.0,63.0,65.0,20.0,21.0
9.0,3.0,9.0,-23.0,60.0,38.0,6.0,49.0
-5.0,-22.0,3.0,-4.0,28.0,17.0,17.0,102.0
-11.0,-29.0,-25.0,-16.0,12.0,-3.0,1.0,188.0
-12.0,-20.0,-5.0,-47.0,49.0,10.0,10.0,99.0
-20.0,-22.0,-15.0,-26.0,24.0,23.0,12.0,-1.0
-30.0,-18.0,-6.0,-45.0,3.0,23.0,-16.0,-63.0
-32.0,-22.0,-16.0,-63.0,-16.0,26.0,-17.0,-158.0
-4.0,-12.0,-36.0,-13.0,-1.0,44.0,4.0,-136.0
-23.0,-11.0,-9.0,-24.0,23.0,38.0,24.0,-162.0
-41.0,-44.0,-17.0,-23.0,23.0,10.0,-3.0,-366.0
-19.0,-32.0,-21.0,-28.0,58.0,5.0,6.0,-380.0
-5.0,15.0,-21.0,-12.0,34.0,-16.0,34.0,7.0
-12.0,15.0,-3.0,0.0,24.0,10.0,37.0,105.0
-25.0,0.0,18.0,-13.0,44.0,27.0,46.0,22.0
-4.0,-3.0,-15.0,18.0,45.0,20.0,42.0,144.0
4.0,-3.0,-2.0,-2.0,20.0,42.0,20.0,296.0
-5.0,4.0,-6.0,-3.0,30.0,29.0,30.0,426.0
-7.0,15.0,-17.0,-4.0,49.0,22.0,40.0,276.0
1.0,-15.0,6.0,-27.0,26.0,4.0,20.0,184.0
-10.0,-11.0,15.0,-20.0,30.0,-65.0,21.0,-39.0
9.0,26.0,-13.0,-8.0,34.0,-82.0,28.0,-191.0
12.0,26.0,-22.0,-8.0,6.0,-15.0,36.0,-221.0
-6.0,20.0,2.0,-14.0,17.0,20.0,19.0,-603.0
-1.0,20.0,-5.0,-21.0,28.0,12.0,10.0,-714.0
-18.0,24.0,-15.0,-25.0,40.0,20.0,35.0,-202.0
-5.0,14.0,-16.0,-22.0,36.0,43.0,17.0,149.0
-26.0,9.0,1.0,-5.0,27.0,66.0,25.0,66.0
2.0,11.0,2.0,-2.0,49.0,54.0,17.0,182.0
-20.0,7.0,7.0,-12.0,69.0,32.0,15.0,142.0
-21.0,44.0,6.0,2.0,77.0,23.0,29.0,172.0
5.0,28.0,-5.0,-9.0,19.0,48.0,18.0,176.0
-16.0,23.0,-29.0,-29.0,49.0,23.0,34.0,96.0
17.0,22.0,-9.0,-23.0,48.0,20.0,17.0,156.0
-4.0,22.0,4.0,-38.0,14.0,21.0,21.0,100.0
10.0,39.0,-26.0,-29.0,25.0,-7.0,24.0,157.0
-11.0,17.0,-23.0,-12.0,-5.0,16.0,8.0,131.0
-27.0,24.0,-27.0,-33.0,-17.0,-7.0,7.0,132.0
-23.0,7.0,-26.0,-42.0,-6.0,-14.0,10.0,122.0
-37.0,3.0,-9.0,-42.0,3.0,0.0,1.0,92.0
-14.0,3.0,-2.0,-57.0,-24.0,22.0,9.0,106.0
-12.0,11.0,8.0,-19.0,-11.0,91.0,21.0,94.0
-6.0,12.0,23.0,-19.0,-6.0,126.0,25.0,105.0
-13.0,-16.0,7.0,-18.0,-31.0,105.0,44.0,76.0
2.0,-25.0,6.0,4.0,-1.0,83.0,70.0,122.0
2.0,-18.0,18.0,-11.0,16.0,44.0,61.0,239.0
12.0,5.0,13.0,-13.0,43.0,1.0,65.0,308.0
4.0,-25.0,10.0,-9.0,41.0,38.0,42.0,237.0
-2.0,-23.0,-31.0,-1.0,21.0,33.0,40.0,176.0
-8.0,-6.0,-9.0,-15.0,31.0,21.0,69.0,52.0
-35.0,6.0,-20.0,-32.0,16.0,26.0,49.0,-64.0
-27.0,-16.0,-11.0,-26.0,32.0,25.0,64.0,-207.0
-12.0,4.0,13.0,-59.0,17.0,21.0,14.0,-427.0
10.0,21.0,-6.0,-32.0,20.0,17.0,-5.0,-321.0
-13.0,2.0,-9.0,-23.0,20.0,27.0,24.0,-61.0
-9.0,26.0,-14.0,-25.0,6.0,29.0,13.0,64.0
-7.0,12.0,-1.0,-19.0,44.0,34.0,18.0,190.0
-18.0,36.0,-7.0,-25.0,64.0,25.0,15.0,286.0
-9.0,22.0,-11.0,-4.0,60.0,32.0,16.0,196.0
-43.0,21.0,8.0,0.0,58.0,53.0,37.0,177.0
-22.0,12.0,30.0,26.0,89.0,69.0,50.0,130.0
-16.0,-7.0,11.0,13.0,84.0,52.0,50.0,14.0
-39.0,-1.0,-19.0,7.0,30.0,52.0,37.0,-108.0
10.0,-12.0,-2.0,-10.0,25.0,50.0,35.0,-382.0
21.0,8.0,1.0,-19.0,55.0,24.0,29.0,-583.0
-2.0,18.0,-5.0,-12.0,47.0,33.0,24.0,-301.0
-21.0,6.0,-36.0,-34.0,60.0,35.0,30.0,49.0
-18.0,-19.0,-29.0,-37.0,46.0,28.0,15.0,-47.0
-5.0,-23.0,-5.0,-33.0,28.0,20.0,17.0,46.0
-18.0,-8.0,-18.0,-3.0,35.0,-1.0,20.0,62.0
-18.0,-4.0,-20.0,-18.0,14.0,-40.0,-3.0,14.0
2.0,-3.0,4.0,-21.0,36.0,-20.0,4.0,74.0
-3.0,-5.0,-25.0,-12.0,22.0,-10.0,0.0,42.0
-1.0,-16.0,-31.0,-3.0,16.0,-36.0,6.0,73.0
-7.0,-34.0,-11.0,8.0,9.0,-43.0,-16.0,22.0
-36.0,-14.0,-17.0,-14.0,-10.0,-98.0,4.0,71.0
-13.0,-20.0,-10.0,1.0,7.0,-71.0,3.0,54.0
11.0,-11.0,16.0,-6.0,-7.0,-4.0,-3.0,26.0
18.0,-16.0,-6.0,-8.0,0.0,-25.0,22.0,24.0
19.0,-26.0,-25.0,-11.0,-15.0,-20.0,25.0,19.0
12.0,17.0,11.0,2.0,6.0,-3.0,45.0,67.0
9.0,9.0,-17.0,14.0,5.0,24.0,35.0,46.0
-4.0,0.0,-9.0,-12.0,9.0,36.0,45.0,54.0
9.0,16.0,23.0,-13.0,-1.0,-2.0,33.0,58.0
3.0,2.0,12.0,-28.0,-12.0,-4.0,42.0,77.0
0.0,17.0,-13.0,-33.0,44.0,-1.0,47.0,69.0
15.0,24.0,-6.0,-21.0,23.0,53.0,29.0,50.0
18.0,29.0,-3.0,-11.0,17.0,12.0,23.0,14.0
20.0,34.0,-20.0,-19.0,-14.0,-95.0,1.0,-1.0
5.0,10.0,0.0,-28.0,-12.0,-71.0,18.0,-3.0
-7.0,14.0,11.0,-12.0,32.0,5.0,25.0,8.0
12.0,9.0,23.0,4.0,36.0,28.0,34.0,39.0
18.0,23.0,14.0,28.0,44.0,76.0,27.0,95.0
15.0,37.0,0.0,26.0,14.0,65.0,41.0,117.0
17.0,19.0,-8.0,8.0,23.0,43.0,49.0,99.0
0.0,8.0,3.0,2.0,-8.0,61.0,22.0,54.0
2.0,7.0,-6.0,-11.0,-24.0,65.0,23.0,17.0
1.0,13.0,-20.0,-25.0,-19.0,66.0,17.0,61.0
-14.0,12.0,-24.0,-26.0,-45.0,78.0,18.0,68.0
-24.0,10.0,-18.0,0.0,-37.0,72.0,-6.0,74.0
-35.0,2.0,-22.0,-14.0,-33.0,15.0,-4.0,39.0
-14.0,-18.0,-2.0,-31.0,-3.0,28.0,-4.0,-4.0
-32.0,-26.0,10.0,-38.0,0.0,16.0,24.0,-23.0
-32.0,-31.0,-7.0,-53.0,-14.0,32.0,28.0,-50.0
-27.0,-16.0,-10.0,-31.0,-31.0,55.0,7.0,-158.0
-16.0,-8.0,15.0,-29.0,-28.0,37.0,-2.0,-133.0
4.0,11.0,-7.0,2.0,-7.0,23.0,13.0,56.0
3.0,7.0,-2.0,-3.0,11.0,31.0,20.0,28.0
-11.0,7.0,-6.0,-33.0,11.0,38.0,15.0,22.0
-28.0,11.0,-45.0,-22.0,18.0,19.0,26.0,124.0
-1.0,6.0,-15.0,-15.0,56.0,11.0,0.0,92.0
-10.0,30.0,9.0,1.0,60.0,38.0,26.0,21.0
0.0,14.0,12.0,3.0,65.0,15.0,28.0,-7.0
-10.0,8.0,-3.0,-17.0,60.0,5.0,41.0,-23.0
-27.0,13.0,9.0,-29.0,36.0,50.0,32.0,-4.0
-11.0,-13.0,-8.0,-23.0,76.0,17.0,22.0,-42.0
-41.0,-10.0,5.0,-10.0,68.0,14.0,55.0,16.0
-7.0,-2.0,15.0,-12.0,38.0,14.0,19.0,46.0
2.0,-1.0,2.0,-10.0,49.0,10.0,25.0,10.0
-32.0,-1.0,4.0,-16.0,49.0,28.0,50.0,125.0
-25.0,-11.0,-13.0,-13.0,71.0,54.0,28.0,184.0
-8.0,-7.0,5.0,-13.0,86.0,49.0,30.0,169.0
-8.0,16.0,-6.0,-21.0,72.0,25.0,45.0,134.0
-18.0,37.0,0.0,-16.0,41.0,25.0,26.0,66.0
-25.0,13.0,-4.0,3.0,24.0,25.0,47.0,-43.0
-14.0,-3.0,-6.0,-3.0,19.0,47.0,45.0,-105.0
-17.0,24.0,4.0,-23.0,-2.0,8.0,33.0,-193.0
-45.0,10.0,5.0,-15.0,27.0,6.0,31.0,-286.0
-28.0,0.0,-20.0,-14.0,47.0,21.0,23.0,-123.0
-22.0,-13.0,-8.0,-13.0,55.0,33.0,22.0,37.0
-14.0,-2.0,42.0,3.0,63.0,28.0,-15.0,9.0
-6.0,8.0,2.0,-6.0,56.0,14.0,10.0,33.0
-9.0,-13.0,-1.0,-30.0,47.0,25.0,12.0,-17.0
-33.0,-11.0,2.0,-22.0,34.0,-20.0,-12.0,-71.0
-31.0,2.0,-11.0,-21.0,8.0,-4.0,5.0,-5.0
-14.0,1.0,5.0,-44.0,5.0,20.0,2.0,2.0
-24.0,-33.0,8.0,-39.0,27.0,-3.0,20.0,23.0
-12.0,-23.0,-7.0,-45.0,13.0,4.0,7.0,71.0
-10.0,-34.0,-28.0,-18.0,16.0,-4.0,1.0,139.0
-5.0,-18.0,-36.0,-21.0,21.0,-3.0,3.0,102.0
-15.0,-26.0,-30.0,-29.0,-6.0,19.0,5.0,35.0
-4.0,-37.0,-5.0,-19.0,-3.0,-9.0,18.0,31.0
3.0,-35.0,9.0,-17.0,-7.0,4.0,28.0,9.0
-8.0,-69.0,-1.0,-5.0,-4.0,34.0,41.0,30.0
-2.0,-19.0,-16.0,-34.0,-1.0,28.0,31.0,47.0
-6.0,-9.0,-15.0,-33.0,-14.0,46.0,20.0,54.0
13.0,-19.0,-20.0,-26.0,-16.0,32.0,17.0,61.0
18.0,1.0,3.0,-40.0,1.0,32.0,50.0,54.0
10.0,7.0,-7.0,-52.0,19.0,-9.0,80.0,36.0
7.0,8.0,-26.0,-43.0,7.0,-36.0,39.0,25.0
15.0,14.0,-11.0,-31.0,16.0,10.0,14.0,-9.0
-10.0,1.0,13.0,-10.0,12.0,58.0,19.0,-73.0
0.0,12.0,3.0,-8.0,16.0,49.0,23.0,-1.0
9.0,34.0,-7.0,2.0,22.0,34.0,6.0,36.0
-20.0,30.0,11.0,-7.0,18.0,53.0,15.0,-26.0
-13.0,19.0,20.0,-19.0,39.0,36.0,32.0,53.0
-5.0,-1.0,30.0,-3.0,28.0,33.0,14.0,49.0
-11.0,21.0,1.0,7.0,11.0,44.0,16.0,-31.0
10.0,50.0,0.0,11.0,4.0,41.0,29.0,-31.0
44.0,45.0,-1.0,3.0,-3.0,36.0,29.0,-33.0
20.0,44.0,5.0,4.0,7.0,57.0,20.0,74.0
0.0,39.0,0.0,-10.0,9.0,72.0,26.0,210.0
-1.0,30.0,-2.0,-22.0,18.0,73.0,19.0,225.0
-12.0,21.0,3.0,1.0,38.0,88.0,26.0,195.0
-1.0,28.0,-21.0,0.0,12.0,48.0,22.0,212.0
-6.0,18.0,5.0,-35.0,24.0,40.0,15.0,25.0
-12.0,2.0,-22.0,-2.0,47.0,39.0,25.0,-166.0
-11.0,-18.0,-12.0,-8.0,56.0,11.0,10.0,-140.0
-33.0,-18.0,-22.0,-26.0,33.0,22.0,26.0,-338.0
-12.0,-8.0,-36.0,1.0,34.0,26.0,8.0,-583.0
-20.0,-1.0,-10.0,1.0,78.0,14.0,-8.0,-350.0
-37.0,25.0,-20.0,13.0,65.0,10.0,-2.0,-35.0
-8.0,7.0,-13.0,-18.0,58.0,10.0,-13.0,-63.0
-10.0,-26.0,-18.0,4.0,79.0,5.0,-3.0,43.0
-13.0,4.0,4.0,10.0,81.0,-7.0,4.0,71.0
-12.0,8.0,-21.0,15.0,71.0,-19.0,32.0,66.0
-39.0,-1.0,-22.0,6.0,74.0,15.0,20.0,108.0
-38.0,20.0,-3.0,-13.0,91.0,6.0,21.0,41.0
-7.0,16.0,-4.0,-4.0,78.0,-3.0,18.0,63.0
-3.0,-2.0,15.0,-24.0,81.0,-26.0,15.0,43.0
-15.0,25.0,10.0,-10.0,84.0,-35.0,30.0,54.0
0.0,-21.0,9.0,-11.0,55.0,6.0,18.0,76.0
-12.0,-26.0,-3.0,-2.0,46.0,5.0,48.0,219.0
-25.0,23.0,-6.0,10.0,80.0,16.0,37.0,292.0
-6.0,6.0,-14.0,-24.0,76.0,53.0,23.0,202.0
0.0,36.0,-4.0,0.0,69.0,107.0,63.0,153.0
-25.0,38.0,21.0,19.0,71.0,112.0,50.0,0.0
-32.0,3.0,24.0,4.0,30.0,53.0,47.0,-75.0
-20.0,30.0,36.0,22.0,47.0,54.0,67.0,-159.0
13.0,36.0,14.0,22.0,53.0,68.0,28.0,-320.0
15.0,0.0,3.0,0.0,45.0,21.0,35.0,-135.0
2.0,6.0,8.0,-15.0,48.0,48.0,50.0,282.0
-8.0,30.0,-6.0,-11.0,11.0,31.0,56.0,279.0
-8.0,14.0,-5.0,-37.0,12.0,41.0,37.0,193.0
-10.0,-12.0,-13.0,-51.0,-1.0,63.0,28.0,212.0
-18.0,15.0,-30.0,-66.0,-3.0,38.0,21.0,87.0
-12.0,0.0,-30.0,-82.0,19.0,55.0,-7.0,76.0
-1.0,-11.0,-24.0,-64.0,14.0,29.0,43.0,-14.0
0.0,10.0,-36.0,-44.0,35.0,48.0,0.0,-248.0
2.0,-25.0,-25.0,-49.0,3.0,54.0,-19.0,-325.0
-18.0,-21.0,-20.0,-10.0,-40.0,66.0,10.0,83.0
-13.0,12.0,-33.0,-23.0,11.0,54.0,-2.0,164.0
3.0,0.0,-4.0,-44.0,-12.0,40.0,3.0,9.0
-24.0,5.0,-16.0,-24.0,-23.0,23.0,4.0,-15.0
-8.0,12.0,-30.0,-47.0,-7.0,-32.0,5.0,-407.0
-21.0,-4.0,-18.0,-7.0,-19.0,-74.0,-1.0,-412.0
-28.0,0.0,-18.0,-1.0,19.0,-92.0,8.0,-30.0
7.0,-10.0,-22.0,-4.0,0.0,-35.0,6.0,37.0
-5.0,14.0,-8.0,16.0,-2.0,-3.0,20.0,-111.0
12.0,17.0,12.0,-5.0,-4.0,42.0,25.0,86.0
-10.0,-8.0,-26.0,6.0,-4.0,53.0,39.0,147.0
-25.0,13.0,-21.0,10.0,8.0,45.0,50.0,92.0
-3.0,16.0,-5.0,-9.0,5.0,40.0,41.0,187.0
0.0,25.0,-16.0,-19.0,22.0,50.0,32.0,157.0
-3.0,12.0,7.0,-7.0,3.0,109.0,32.0,249.0
3.0,18.0,-14.0,2.0,13.0,111.0,39.0,269.0
20.0,26.0,5.0,-10.0,5.0,87.0,28.0,242.0
15.0,10.0,-2.0,-24.0,-1.0,63.0,23.0,157.0
17.0,21.0,-5.0,-14.0,-2.0,25.0,21.0,63.0
-13.0,19.0,15.0,-19.0,-10.0,-27.0,40.0,0.0
15.0,-7.0,-11.0,-6.0,10.0,-9.0,24.0,-88.0
21.0,7.0,0.0,9.0,12.0,54.0,29.0,-166.0
7.0,-10.0,-22.0,-5.0,-8.0,38.0,21.0,-251.0
36.0,-18.0,-6.0,-1.0,-1.0,8.0,42.0,-108.0
0.0,15.0,13.0,-5.0,15.0,-31.0,78.0,9.0
3.0,-12.0,-13.0,-6.0,23.0,-7.0,21.0,-15.0
-10.0,5.0,-4.0,-14.0,24.0,9.0,27.0,75.0
-29.0,-16.0,-28.0,-16.0,16.0,16.0,36.0,47.0
-12.0,-42.0,-20.0,-21.0,15.0,43.0,29.0,83.0
-17.0,18.0,-2.0,-32.0,-13.0,19.0,5.0,174.0
-15.0,-3.0,8.0,-10.0,-34.0,61.0,25.0,76.0
-16.0,1.0,6.0,-23.0,-22.0,42.0,66.0,53.0
-4.0,-1.0,-17.0,-20.0,3.0,28.0,31.0,38.0
-29.0,4.0,7.0,-1.0,-18.0,47.0,45.0,19.0
-17.0,14.0,11.0,-16.0,-33.0,22.0,47.0,21.0
-9.0,-16.0,19.0,-10.0,-21.0,14.0,29.0,11.0
-9.0,-11.0,34.0,-17.0,-21.0,1.0,32.0,19.0
-3.0,-4.0,2.0,-30.0,-16.0,8.0,20.0,8.0
-27.0,13.0,2.0,-11.0,-20.0,-6.0,24.0,9.0
-8.0,2.0,2.0,-14.0,16.0,8.0,31.0,8.0
-7.0,7.0,-4.0,-25.0,18.0,17.0,20.0,2.0
-2.0,2.0,-7.0,-14.0,25.0,-4.0,-3.0,-11.0
11.0,-10.0,-33.0,-29.0,78.0,4.0,-6.0,-16.0
-11.0,-10.0,-5.0,-19.0,53.0,11.0,0.0,-19.0
-1.0,2.0,-17.0,-18.0,53.0,2.0,21.0,22.0
-1.0,10.0,-4.0,-20.0,61.0,37.0,37.0,43.0
-13.0,-11.0,15.0,-35.0,38.0,24.0,24.0,78.0
7.0,11.0,-11.0,-33.0,48.0,-22.0,32.0,108.0
-14.0,14.0,-17.0,-32.0,46.0,-2.0,28.0,51.0
9.0,-6.0,-9.0,-38.0,74.0,29.0,14.0,71.0
12.0,8.0,12.0,-21.0,60.0,27.0,15.0,28.0
-11.0,-20.0,-7.0,-25.0,41.0,15.0,37.0,6.0
10.0,-21.0,10.0,2.0,68.0,45.0,31.0,79.0
-1.0,10.0,18.0,-10.0,62.0,49.0,9.0,21.0
3.0,0.0,8.0,-11.0,60.0,33.0,16.0,2.0
-6.0,34.0,23.0,10.0,47.0,24.0,21.0,35.0
-10.0,36.0,2.0,-8.0,64.0,36.0,37.0,5.0
-21.0,6.0,2.0,-16.0,64.0,32.0,6.0,-10.0
-42.0,23.0,-1.0,-6.0,56.0,27.0,1.0,10.0
-32.0,8.0,-1.0,12.0,52.0,44.0,44.0,21.0
-33.0,0.0,-12.0,-6.0,20.0,9.0,28.0,-13.0
-24.0,6.0,-10.0,-13.0,24.0,13.0,10.0,-16.0
-20.0,9.0,-6.0,-13.0,12.0,10.0,14.0,-27.0
-47.0,13.0,12.0,-20.0,5.0,-20.0,8.0,-26.0
-44.0,14.0,8.0,-23.0,13.0,9.0,-6.0,13.0
-28.0,14.0,-2.0,-17.0,39.0,42.0,14.0,30.0
-20.0,12.0,2.0,9.0,47.0,16.0,27.0,49.0
-21.0,24.0,-6.0,-6.0,12.0,15.0,8.0,-3.0
-15.0,26.0,0.0,6.0,17.0,5.0,14.0,-64.0
-12.0,25.0,-9.0,-3.0,36.0,-10.0,-9.0,-25.0
-25.0,4.0,0.0,-13.0,27.0,24.0,-2.0,36.0
-23.0,-5.0,-3.0,8.0,45.0,0.0,10.0,18.0
-3.0,12.0,-9.0,-6.0,55.0,19.0,-5.0,19.0
-25.0,12.0,-11.0,2.0,56.0,21.0,2.0,-19.0
-26.0,23.0,-22.0,-11.0,53.0,-14.0,12.0,-55.0
-1.0,10.0,-33.0,-3.0,26.0,-69.0,30.0,-72.0
-18.0,-8.0,-45.0,-36.0,9.0,-63.0,29.0,-69.0
-4.0,7.0,-13.0,-32.0,23.0,30.0,25.0,-26.0
-4.0,-9.0,0.0,-18.0,12.0,20.0,1.0,-11.0
-17.0,-21.0,-13.0,-23.0,-16.0,-1.0,19.0,83.0
-18.0,-11.0,-4.0,-5.0,13.0,20.0,21.0,135.0
-28.0,-10.0,0.0,-39.0,36.0,27.0,9.0,97.0
-8.0,0.0,1.0,-34.0,-7.0,42.0,18.0,30.0
-6.0,-6.0,5.0,-26.0,2.0,46.0,21.0,56.0
0.0,12.0,12.0,-26.0,14.0,19.0,36.0,53.0
0.0,16.0,5.0,-25.0,15.0,20.0,10.0,-21.0
-10.0,8.0,-3.0,-19.0,29.0,23.0,23.0,-14.0
7.0,-8.0,-5.0,-24.0,-3.0,18.0,35.0,33.0
1.0,-19.0,-7.0,-26.0,8.0,17.0,43.0,10.0
-2.0,1.0,-14.0,6.0,35.0,35.0,31.0,-132.0
-11.0,-12.0,-7.0,-13.0,17.0,40.0,30.0,-120.0
-4.0,-29.0,-2.0,-12.0,-2.0,17.0,45.0,50.0
-28.0,-19.0,-5.0,-13.0,-4.0,36.0,33.0,38.0
-20.0,3.0,-15.0,-8.0,4.0,54.0,48.0,-36.0
10.0,-20.0,-22.0,-10.0,2.0,64.0,30.0,-13.0
-29.0,-25.0,-13.0,-23.0,0.0,41.0,25.0,-51.0
-18.0,-6.0,-24.0,-46.0,8.0,40.0,18.0,2.0
-23.0,-30.0,-36.0,-57.0,46.0,62.0,10.0,-1.0
-3.0,-8.0,-29.0,-36.0,40.0,43.0,25.0,4.0
15.0,4.0,5.0,-53.0,17.0,36.0,30.0,21.0
-11.0,0.0,-8.0,-47.0,26.0,43.0,21.0,4.0
4.0,13.0,-2.0,-44.0,12.0,29.0,31.0,33.0
10.0,-5.0,0.0,-43.0,23.0,10.0,54.0,33.0
-15.0,-11.0,-15.0,-36.0,17.0,8.0,26.0,70.0
-1.0,12.0,10.0,-9.0,11.0,4.0,38.0,91.0
-4.0,28.0,11.0,0.0,14.0,21.0,34.0,184.0
-8.0,31.0,18.0,0.0,-18.0,2.0,21.0,261.0
9.0,28.0,24.0,9.0,-5.0,42.0,41.0,207.0
5.0,18.0,2.0,-19.0,28.0,87.0,41.0,174.0
9.0,28.0,7.0,8.0,21.0,99.0,36.0,125.0
20.0,40.0,14.0,10.0,6.0,88.0,32.0,61.0
24.0,41.0,8.0,-1.0,23.0,47.0,29.0,108.0
15.0,38.0,26.0,0.0,17.0,48.0,60.0,-2.0
23.0,23.0,11.0,10.0,5.0,41.0,37.0,-382.0
-3.0,26.0,2.0,5.0,20.0,56.0,21.0,-325.0
-25.0,23.0,11.0,-10.0,22.0,49.0,38.0,224.0
8.0,17.0,3.0,4.0,54.0,33.0,53.0,264.0
-5.0,10.0,-1.0,-6.0,54.0,25.0,47.0,235.0
-12.0,-12.0,-4.0,0.0,46.0,41.0,32.0,234.0
9.0,-11.0,-6.0,5.0,23.0,32.0,37.0,26.0
3.0,-7.0,-2.0,-15.0,29.0,32.0,29.0,214.0
7.0,0.0,-9.0,-21.0,40.0,64.0,15.0,-111.0
-12.0,1.0,-11.0,12.0,5.0,35.0,13.0,-675.0
-39.0,11.0,0.0,-4.0,18.0,46.0,10.0,-759.0
-42.0,2.0,-11.0,-20.0,-23.0,43.0,0.0,-627.0
-44.0,-43.0,-26.0,-40.0,-12.0,-3.0,-2.0,-665.0
-47.0,-1.0,-5.0,-37.0,4.0,-11.0,-18.0,-382.0
-33.0,-22.0,-17.0,-25.0,-15.0,-28.0,-6.0,182.0
-24.0,-28.0,-7.0,-30.0,28.0,-6.0,-16.0,82.0
-14.0,-1.0,-3.0,-16.0,14.0,-6.0,4.0,239.0
-5.0,-16.0,-28.0,-16.0,-15.0,-21.0,2.0,253.0
-15.0,-7.0,-37.0,-15.0,-12.0,-18.0,-6.0,188.0
-18.0,-28.0,-26.0,-28.0,3.0,87.0,2.0,239.0
0.0,-23.0,-7.0,-49.0,14.0,97.0,-7.0,139.0
-28.0,-17.0,-5.0,-25.0,28.0,-3.0,5.0,225.0
-63.0,-27.0,-13.0,-3.0,31.0,41.0,-6.0,148.0
-49.0,-44.0,-12.0,-21.0,38.0,12.0,11.0,163.0
-27.0,-43.0,1.0,-16.0,35.0,-5.0,-2.0,135.0
-29.0,-12.0,-3.0,-6.0,22.0,-28.0,-13.0,138.0
-27.0,-10.0,-5.0,4.0,29.0,-104.0,3.0,139.0
4.0,12.0,-27.0,-31.0,24.0,-50.0,16.0,98.0
-1.0,27.0,-18.0,-40.0,29.0,-16.0,34.0,107.0
-1.0,20.0,-14.0,-17.0,19.0,-20.0,21.0,80.0
-8.0,12.0,-1.0,-26.0,20.0,20.0,32.0,74.0
-14.0,25.0,15.0,-22.0,18.0,31.0,15.0,28.0
10.0,33.0,21.0,-30.0,28.0,43.0,32.0,35.0
-6.0,37.0,16.0,-14.0,31.0,21.0,50.0,53.0
-14.0,12.0,3.0,-9.0,24.0,15.0,40.0,108.0
-23.0,-4.0,6.0,0.0,44.0,36.0,43.0,105.0
-20.0,19.0,-6.0,-2.0,44.0,51.0,33.0,81.0
-23.0,-3.0,6.0,0.0,46.0,41.0,36.0,68.0
-16.0,36.0,2.0,12.0,77.0,9.0,37.0,21.0
8.0,54.0,-4.0,0.0,67.0,8.0,47.0,9.0
8.0,33.0,8.0,9.0,82.0,-7.0,28.0,25.0
24.0,36.0,-14.0,-21.0,86.0,-3.0,31.0,9.0
31.0,29.0,-22.0,-26.0,47.0,37.0,48.0,-6.0
26.0,0.0,-4.0,-29.0,55.0,31.0,36.0,32.0
30.0,-16.0,-11.0,-37.0,41.0,7.0,24.0,22.0
23.0,6.0,-15.0,-31.0,53.0,30.0,24.0,37.0
-8.0,12.0,-28.0,-41.0,65.0,13.0,25.0,24.0
17.0,6.0,-15.0,-12.0,61.0,32.0,40.0,15.0
7.0,-3.0,-11.0,-21.0,73.0,36.0,41.0,1.0
-11.0,-14.0,-19.0,-10.0,58.0,18.0,6.0,-18.0
-8.0,-16.0,-8.0,-24.0,25.0,15.0,0.0,-36.0
-23.0,-12.0,-21.0,-30.0,-2.0,10.0,18.0,-37.0
-3.0,-22.0,-8.0,-3.0,8.0,27.0,12.0,2.0
-20.0,-11.0,6.0,-12.0,26.0,-1.0,-10.0,-19.0
-23.0,-31.0,1.0,-6.0,44.0,-14.0,23.0,3.0
-12.0,-10.0,-7.0,-22.0,38.0,6.0,28.0,-3.0
9.0,11.0,2.0,1.0,12.0,21.0,16.0,-7.0
14.0,-20.0,-19.0,9.0,-18.0,15.0,25.0,1.0
-14.0,-5.0,-6.0,11.0,-8.0,-11.0,25.0,-8.0
0.0,-4.0,2.0,17.0,17.0,-1.0,33.0,16.0
-7.0,-6.0,6.0,0.0,12.0,30.0,27.0,30.0
-8.0,0.0,-4.0,5.0,14.0,25.0,35.0,56.0
-6.0,6.0,-29.0,-15.0,0.0,17.0,35.0,12.0
-3.0,12.0,-14.0,-11.0,14.0,42.0,26.0,25.0
14.0,4.0,-20.0,-23.0,25.0,35.0,29.0,22.0
-7.0,0.0,-24.0,-21.0,-1.0,44.0,29.0,-5.0
-20.0,1.0,-32.0,2.0,-40.0,64.0,10.0,20.0
-14.0,40.0,-25.0,30.0,-15.0,53.0,53.0,41.0
13.0,46.0,-7.0,13.0,10.0,63.0,76.0,24.0
16.0,38.0,5.0,20.0,20.0,54.0,41.0,-66.0
-9.0,32.0,-1.0,26.0,31.0,52.0,28.0,-25.0
1.0,12.0,-22.0,-4.0,21.0,51.0,25.0,42.0
-3.0,8.0,-21.0,12.0,50.0,81.0,34.0,12.0
10.0,19.0,-10.0,-18.0,50.0,94.0,27.0,42.0
11.0,13.0,-1.0,0.0,25.0,83.0,44.0,-55.0
-14.0,8.0,15.0,-17.0,16.0,66.0,45.0,-150.0
-10.0,19.0,17.0,-19.0,12.0,36.0,59.0,-53.0
6.0,11.0,6.0,15.0,20.0,58.0,46.0,-24.0
1.0,5.0,17.0,-20.0,15.0,71.0,34.0,38.0
-25.0,12.0,2.0,15.0,22.0,69.0,58.0,79.0
-20.0,16.0,2.0,14.0,43.0,69.0,35.0,129.0
-13.0,16.0,16.0,-2.0,28.0,36.0,43.0,78.0
-31.0,4.0,1.0,11.0,28.0,29.0,19.0,26.0
-19.0,-3.0,0.0,-33.0,19.0,28.0,5.0,105.0
-25.0,-3.0,-3.0,-42.0,8.0,31.0,10.0,69.0
-25.0,-17.0,-10.0,-40.0,16.0,18.0,8.0,142.0
-2.0,-22.0,-12.0,-32.0,6.0,-15.0,2.0,119.0
-21.0,6.0,11.0,-38.0,45.0,42.0,28.0,26.0
-15.0,-6.0,3.0,-40.0,50.0,29.0,28.0,-2.0
-13.0,-15.0,-25.0,-27.0,19.0,33.0,-1.0,-94.0
-8.0,-12.0,-24.0,-29.0,41.0,4.0,12.0,-101.0
-12.0,-24.0,-23.0,-25.0,58.0,-63.0,8.0,-189.0
-2.0,8.0,-5.0,-38.0,42.0,-15.0,15.0,-378.0
1.0,-16.0,-8.0,-39.0,31.0,17.0,14.0,-211.0
-29.0,-2.0,-17.0,-26.0,60.0,0.0,27.0,43.0
-25.0,18.0,6.0,-33.0,27.0,10.0,34.0,8.0
-24.0,20.0,-4.0,-22.0,60.0,29.0,30.0,81.0
-29.0,0.0,-12.0,5.0,75.0,9.0,48.0,119.0
-33.0,-7.0,4.0,-12.0,65.0,42.0,31.0,112.0
-24.0,28.0,26.0,-2.0,64.0,20.0,54.0,130.0
-14.0,10.0,19.0,30.0,45.0,-1.0,49.0,106.0
-8.0,-11.0,17.0,8.0,66.0,-4.0,67.0,111.0
15.0,23.0,18.0,-7.0,45.0,50.0,59.0,59.0
5.0,31.0,15.0,3.0,40.0,82.0,23.0,144.0
-1.0,29.0,2.0,-3.0,39.0,27.0,28.0,241.0
0.0,36.0,17.0,-5.0,25.0,36.0,24.0,303.0
5.0,5.0,17.0,-29.0,7.0,15.0,24.0,355.0
2.0,20.0,1.0,-45.0,9.0,50.0,2.0,332.0
14.0,13.0,2.0,-64.0,19.0,49.0,15.0,321.0
9.0,-21.0,0.0,-66.0,1.0,26.0,9.0,181.0
-6.0,-26.0,-5.0,-53.0,-7.0,29.0,10.0,-136.0
7.0,-8.0,-28.0,-48.0,-4.0,14.0,0.0,-349.0
-9.0,16.0,-17.0,-56.0,11.0,11.0,-8.0,-350.0
-1.0,7.0,-6.0,-61.0,-3.0,-30.0,5.0,-514.0
10.0,1.0,-25.0,-32.0,-5.0,-72.0,2.0,-758.0
-4.0,-6.0,-52.0,-60.0,-24.0,-53.0,16.0,-614.0
-17.0,11.0,-57.0,-56.0,-28.0,-34.0,24.0,-440.0
2.0,4.0,-42.0,-42.0,-16.0,-30.0,34.0,-17.0
3.0,-10.0,-15.0,-31.0,6.0,-44.0,19.0,174.0
-28.0,-26.0,-2.0,-18.0,15.0,-19.0,38.0,83.0
-20.0,-16.0,-11.0,-22.0,-18.0,-10.0,37.0,210.0
-14.0,-5.0,-4.0,-3.0,-23.0,6.0,26.0,112.0
12.0,0.0,7.0,0.0,-10.0,62.0,18.0,200.0
15.0,22.0,13.0,22.0,1.0,37.0,23.0,141.0
-6.0,12.0,9.0,22.0,-17.0,36.0,41.0,128.0
25.0,2.0,11.0,17.0,19.0,31.0,28.0,165.0
0.0,22.0,11.0,12.0,44.0,38.0,53.0,139.0
-10.0,37.0,11.0,26.0,21.0,19.0,7.0,145.0
12.0,10.0,11.0,32.0,19.0,-3.0,13.0,104.0
-6.0,27.0,19.0,2.0,-3.0,17.0,8.0,78.0
-28.0,-6.0,-1.0,4.0,-11.0,44.0,5.0,15.0
-25.0,-7.0,13.0,9.0,24.0,82.0,44.0,44.0
-26.0,11.0,16.0,-3.0,27.0,40.0,-6.0,15.0
-26.0,0.0,-29.0,-29.0,3.0,17.0,16.0,-17.0
-31.0,24.0,-29.0,-18.0,-16.0,15.0,16.0,13.0
-40.0,5.0,-37.0,-15.0,7.0,24.0,2.0,45.0
-44.0,-2.0,-41.0,-39.0,2.0,14.0,17.0,98.0
-35.0,-5.0,-26.0,-28.0,1.0,12.0,12.0,158.0
-55.0,-37.0,-7.0,-32.0,12.0,-2.0,-3.0,155.0
-46.0,-34.0,-19.0,-33.0,18.0,-11.0,-9.0,230.0
-32.0,-28.0,-41.0,-14.0,33.0,10.0,-6.0,308.0
-33.0,-38.0,-11.0,-4.0,5.0,-37.0,2.0,147.0
-18.0,-14.0,19.0,-16.0,-1.0,-22.0,25.0,93.0
-18.0,-33.0,-1.0,-15.0,-3.0,33.0,-3.0,1.0
-5.0,-32.0,2.0,-37.0,-7.0,71.0,5.0,-104.0
-10.0,-14.0,18.0,-4.0,1.0,57.0,15.0,-161.0
-11.0,-13.0,-13.0,-7.0,3.0,48.0,17.0,-467.0
-14.0,23.0,-20.0,-17.0,-5.0,38.0,30.0,-553.0
-8.0,27.0,-8.0,-6.0,24.0,-24.0,30.0,-101.0
8.0,4.0,-18.0,-29.0,27.0,-106.0,51.0,119.0
8.0,-27.0,-14.0,-10.0,8.0,-167.0,32.0,-17.0
9.0,1.0,1.0,-17.0,23.0,-123.0,17.0,14.0
23.0,8.0,-5.0,-18.0,50.0,2.0,35.0,-8.0
24.0,13.0,-23.0,-2.0,50.0,124.0,26.0,66.0
29.0,40.0,-20.0,-3.0,43.0,144.0,8.0,56.0
15.0,21.0,-3.0,-18.0,47.0,164.0,20.0,56.0
9.0,45.0,-9.0,-31.0,43.0,124.0,31.0,131.0
2.0,39.0,-6.0,-21.0,31.0,81.0,20.0,108.0
-5.0,37.0,7.0,-18.0,39.0,89.0,14.0,119.0
-16.0,37.0,3.0,-7.0,40.0,58.0,1.0,86.0
-10.0,9.0,3.0,9.0,41.0,77.0,11.0,131.0
6.0,23.0,1.0,-8.0,44.0,50.0,22.0,124.0
-17.0,45.0,-9.0,7.0,52.0,66.0,28.0,86.0
6.0,40.0,10.0,5.0,48.0,70.0,21.0,89.0
-7.0,28.0,24.0,7.0,31.0,67.0,15.0,-17.0
-3.0,24.0,27.0,13.0,23.0,107.0,27.0,-50.0
-1.0,8.0,16.0,10.0,37.0,98.0,29.0,-17.0
-11.0,-4.0,21.0,-1.0,58.0,91.0,63.0,-37.0
25.0,17.0,24.0,13.0,59.0,64.0,48.0,12.0
-1.0,3.0,9.0,28.0,55.0,50.0,27.0,59.0
-38.0,16.0,-18.0,-1.0,55.0,58.0,61.0,132.0
-14.0,29.0,-25.0,10.0,53.0,62.0,69.0,182.0
-9.0,2.0,-2.0,-22.0,44.0,31.0,31.0,99.0
-20.0,22.0,-5.0,-41.0,15.0,7.0,16.0,5.0
1.0,4.0,-12.0,-54.0,-23.0,-4.0,32.0,-2.0
-27.0,5.0,-7.0,-69.0,-1.0,-24.0,32.0,-1.0
-12.0,-22.0,-31.0,-33.0,22.0,20.0,33.0,-1.0
-10.0,-37.0,-22.0,-18.0,16.0,29.0,22.0,51.0
-20.0,-18.0,-5.0,-20.0,16.0,13.0,9.0,122.0
-16.0,5.0,-1.0,4.0,11.0,32.0,29.0,123.0
-16.0,14.0,4.0,-8.0,20.0,-11.0,17.0,22.0
-9.0,-30.0,-3.0,-14.0,30.0,10.0,19.0,1.0
-23.0,-14.0,-29.0,-17.0,20.0,8.0,7.0,-55.0
-16.0,-29.0,-24.0,-29.0,4.0,7.0,-4.0,-117.0
-36.0,-12.0,-2.0,-20.0,32.0,22.0,-4.0,-206.0
-8.0,-13.0,-16.0,-33.0,36.0,-9.0,6.0,-395.0
-15.0,-39.0,-9.0,-16.0,22.0,15.0,18.0,-248.0
-33.0,-1.0,-13.0,1.0,28.0,29.0,9.0,40.0
0.0,1.0,-4.0,-23.0,46.0,72.0,28.0,1.0
-8.0,-2.0,-15.0,-31.0,38.0,1.0,4.0,34.0
-1.0,-23.0,-8.0,-36.0,16.0,-35.0,-8.0,22.0
-25.0,-27.0,-24.0,-20.0,31.0,0.0,10.0,9.0
-20.0,-28.0,-36.0,-11.0,17.0,-13.0,6.0,50.0
13.0,-24.0,-14.0,-21.0,23.0,-10.0,8.0,24.0
-2.0,-23.0,-16.0,-15.0,28.0,-29.0,34.0,88.0
-2.0,-8.0,6.0,-15.0,21.0,27.0,51.0,47.0
14.0,-12.0,11.0,3.0,45.0,6.0,36.0,79.0
20.0,-10.0,28.0,-33.0,66.0,29.0,43.0,65.0
7.0,11.0,-3.0,-36.0,58.0,50.0,31.0,3.0
-14.0,21.0,3.0,-18.0,69.0,9.0,47.0,-80.0
-20.0,43.0,2.0,-35.0,71.0,36.0,53.0,-79.0
-37.0,23.0,-9.0,11.0,46.0,10.0,27.0,49.0
-25.0,14.0,1.0,10.0,61.0,16.0,17.0,-42.0
-15.0,4.0,-9.0,-2.0,41.0,8.0,28.0,34.0
-13.0,41.0,-5.0,-6.0,26.0,-36.0,38.0,75.0
-2.0,22.0,-31.0,-4.0,26.0,-80.0,33.0,18.0
-16.0,2.0,-14.0,-5.0,35.0,-57.0,52.0,69.0
-11.0,22.0,-38.0,-20.0,36.0,-11.0,40.0,70.0
-5.0,12.0,-28.0,-4.0,33.0,7.0,22.0,103.0
14.0,29.0,-18.0,-1.0,40.0,15.0,37.0,23.0
10.0,7.0,-37.0,-16.0,47.0,5.0,19.0,54.0
-16.0,4.0,-14.0,12.0,60.0,6.0,28.0,142.0
-1.0,3.0,-21.0,22.0,46.0,0.0,18.0,200.0
-27.0,-29.0,-32.0,12.0,65.0,28.0,1.0,170.0
-33.0,-23.0,-39.0,9.0,66.0,38.0,12.0,94.0
-7.0,-15.0,-36.0,12.0,68.0,44.0,14.0,47.0
13.0,5.0,-21.0,-2.0,72.0,50.0,9.0,-87.0
11.0,-12.0,-3.0,-22.0,61.0,21.0,11.0,-161.0
2.0,-27.0,-9.0,-30.0,40.0,33.0,23.0,-313.0
-8.0,11.0,-20.0,-12.0,26.0,22.0,28.0,-357.0
0.0,-5.0,-3.0,6.0,15.0,14.0,41.0,-52.0
14.0,14.0,6.0,-11.0,14.0,-4.0,38.0,100.0
-7.0,15.0,6.0,-22.0,47.0,-11.0,19.0,16.0
2.0,-8.0,0.0,-6.0,24.0,1.0,13.0,80.0
8.0,4.0,11.0,-5.0,-3.0,0.0,5.0,58.0
23.0,-28.0,28.0,-18.0,25.0,1.0,-6.0,99.0
-1.0,-32.0,12.0,-8.0,21.0,19.0,4.0,273.0
3.0,-23.0,1.0,-9.0,20.0,48.0,13.0,473.0
32.0,3.0,30.0,-10.0,24.0,54.0,26.0,518.0
1.0,16.0,23.0,-14.0,-5.0,29.0,18.0,379.0
14.0,17.0,17.0,-41.0,-21.0,22.0,2.0,283.0
17.0,-21.0,35.0,-60.0,-12.0,39.0,10.0,74.0
23.0,-14.0,49.0,-44.0,-12.0,4.0,1.0,-158.0
-1.0,-14.0,33.0,-70.0,-17.0,-29.0,25.0,-496.0
-15.0,-29.0,60.0,-82.0,12.0,6.0,18.0,-996.0
-25.0,5.0,93.0,-93.0,-9.0,26.0,5.0,-918.0
-20.0,-2.0,95.0,-121.0,-29.0,17.0,53.0,-354.0
13.0,47.0,115.0,-101.0,-25.0,54.0,47.0,6.0
-18.0,75.0,140.0,-120.0,-4.0,73.0,47.0,122.0
-8.0,47.0,134.0,-103.0,13.0,70.0,41.0,80.0
-15.0,30.0,113.0,-90.0,-1.0,68.0,39.0,164.0
-18.0,45.0,137.0,-88.0,34.0,74.0,42.0,154.0
34.0,68.0,118.0,-104.0,7.0,102.0,24.0,138.0
17.0,25.0,80.0,-102.0,-8.0,24.0,35.0,153.0
-16.0,15.0,52.0,-72.0,-22.0,-58.0,27.0,98.0
-17.0,15.0,40.0,-41.0,-18.0,-93.0,16.0,148.0
-17.0,19.0,14.0,-22.0,-3.0,46.0,13.0,98.0
-47.0,18.0,-32.0,-25.0,-34.0,109.0,36.0,106.0
-50.0,16.0,-56.0,-3.0,-19.0,-59.0,34.0,106.0
-33.0,28.0,-102.0,25.0,12.0,11.0,37.0,103.0
-29.0,20.0,-104.0,35.0,50.0,36.0,29.0,100.0
-61.0,19.0,-104.0,44.0,56.0,42.0,15.0,76.0
-36.0,30.0,-121.0,64.0,49.0,83.0,35.0,178.0
-41.0,31.0,-141.0,61.0,27.0,64.0,10.0,264.0
-64.0,5.0,-160.0,55.0,29.0,89.0,-12.0,225.0
-30.0,-10.0,-147.0,30.0,34.0,53.0,13.0,123.0
-41.0,-10.0,-141.0,31.0,8.0,49.0,23.0,129.0
-31.0,-19.0,-138.0,34.0,30.0,42.0,27.0,88.0
-29.0,-5.0,-131.0,33.0,23.0,54.0,31.0,8.0
-29.0,9.0,-88.0,56.0,21.0,78.0,32.0,-104.0
-6.0,16.0,-78.0,28.0,-13.0,88.0,29.0,-362.0
-15.0,31.0,-102.0,41.0,-23.0,50.0,12.0,-427.0
-39.0,21.0,-88.0,54.0,34.0,73.0,1.0,-42.0
-5.0,4.0,-64.0,29.0,21.0,73.0,15.0,40.0
-7.0,7.0,-33.0,15.0,15.0,27.0,20.0,-22.0
-28.0,-2.0,-37.0,13.0,5.0,44.0,13.0,63.0
-32.0,-1.0,-52.0,13.0,11.0,7.0,4.0,-42.0
-20.0,-11.0,-26.0,-13.0,17.0,14.0,2.0,31.0
4.0,-25.0,-7.0,-9.0,21.0,17.0,7.0,-2.0
21.0,-14.0,-2.0,6.0,23.0,2.0,5.0,-8.0
18.0,-7.0,3.0,-17.0,18.0,12.0,19.0,50.0
-5.0,13.0,-15.0,-26.0,31.0,8.0,27.0,58.0
0.0,11.0,-3.0,-16.0,49.0,32.0,17.0,29.0
0.0,-19.0,-15.0,-24.0,66.0,26.0,12.0,34.0
-8.0,-19.0,-8.0,-22.0,74.0,-1.0,23.0,163.0
-14.0,-39.0,11.0,-29.0,70.0,17.0,37.0,228.0
27.0,-30.0,12.0,-21.0,45.0,23.0,40.0,184.0
-1.0,-10.0,12.0,-8.0,56.0,-3.0,16.0,79.0
-26.0,-20.0,20.0,-20.0,78.0,31.0,40.0,31.0
-11.0,-35.0,34.0,-22.0,52.0,23.0,37.0,-52.0
-1.0,-15.0,27.0,-14.0,24.0,-1.0,21.0,-136.0
1.0,5.0,34.0,-45.0,13.0,-7.0,24.0,-240.0
16.0,-18.0,9.0,-38.0,13.0,-19.0,26.0,-313.0
10.0,-15.0,19.0,20.0,53.0,6.0,20.0,-135.0
-17.0,-5.0,14.0,-8.0,36.0,-11.0,-2.0,83.0
8.0,-4.0,1.0,-32.0,35.0,-14.0,13.0,33.0
-2.0,-16.0,6.0,-5.0,78.0,-55.0,13.0,47.0
-8.0,-1.0,0.0,-31.0,41.0,-91.0,41.0,28.0
-26.0,22.0,21.0,-45.0,5.0,-69.0,40.0,-44.0
-32.0,-7.0,18.0,-50.0,9.0,-70.0,25.0,1.0
-21.0,11.0,16.0,-37.0,-7.0,3.0,39.0,-18.0
2.0,23.0,37.0,-9.0,-18.0,40.0,46.0,103.0
26.0,29.0,50.0,15.0,-19.0,73.0,50.0,105.0
3.0,11.0,52.0,20.0,-12.0,149.0,26.0,87.0
11.0,6.0,50.0,7.0,-14.0,73.0,53.0,134.0
-23.0,20.0,54.0,18.0,-28.0,42.0,29.0,26.0
-15.0,-5.0,39.0,12.0,-39.0,58.0,13.0,-55.0
0.0,15.0,33.0,12.0,-12.0,30.0,9.0,-109.0
-16.0,25.0,18.0,9.0,14.0,66.0,20.0,-5.0
4.0,40.0,7.0,-5.0,12.0,66.0,59.0,32.0
7.0,41.0,19.0,-37.0,37.0,51.0,39.0,19.0
11.0,38.0,3.0,-52.0,17.0,67.0,25.0,97.0
1.0,38.0,-13.0,-36.0,19.0,54.0,36.0,83.0
0.0,15.0,-13.0,-33.0,12.0,41.0,32.0,92.0
20.0,23.0,-2.0,-18.0,-5.0,40.0,27.0,80.0
-8.0,24.0,3.0,-43.0,8.0,40.0,7.0,108.0
-6.0,30.0,-1.0,-49.0,-3.0,-7.0,8.0,108.0
-3.0,11.0,23.0,-9.0,20.0,-48.0,28.0,67.0
-9.0,6.0,9.0,-12.0,8.0,-58.0,24.0,106.0
-16.0,1.0,-16.0,-22.0,-5.0,-56.0,36.0,13.0
-9.0,-25.0,-5.0,-1.0,14.0,28.0,34.0,-147.0
7.0,-37.0,-41.0,-22.0,-5.0,25.0,22.0,-67.0
-21.0,-26.0,-30.0,-25.0,-9.0,51.0,25.0,-22.0
-19.0,-4.0,-18.0,-22.0,-4.0,90.0,2.0,-54.0
-14.0,-11.0,-31.0,-32.0,-16.0,38.0,21.0,119.0
-8.0,-22.0,-10.0,-39.0,-14.0,51.0,38.0,226.0
-7.0,25.0,-15.0,-23.0,-20.0,22.0,31.0,373.0
-10.0,26.0,-5.0,-9.0,-20.0,42.0,23.0,450.0
3.0,3.0,1.0,-23.0,8.0,90.0,10.0,100.0
-10.0,19.0,7.0,-2.0,32.0,84.0,35.0,40.0
-13.0,14.0,-10.0,6.0,29.0,87.0,21.0,29.0
1.0,-4.0,1.0,-4.0,17.0,71.0,5.0,-313.0
11.0,-26.0,5.0,-30.0,43.0,69.0,47.0,-313.0
15.0,4.0,10.0,-26.0,80.0,82.0,47.0,-391.0
4.0,33.0,26.0,1.0,60.0,76.0,40.0,-431.0
-4.0,4.0,-13.0,-4.0,65.0,13.0,49.0,58.0
-8.0,-2.0,0.0,9.0,54.0,-8.0,37.0,0.0
7.0,9.0,14.0,-9.0,48.0,50.0,39.0,-247.0
-10.0,3.0,18.0,-16.0,68.0,51.0,24.0,-366.0
-42.0,5.0,-8.0,-1.0,31.0,27.0,9.0,-205.0
-36.0,-10.0,-2.0,-11.0,47.0,38.0,-7.0,196.0
-38.0,-18.0,-3.0,16.0,51.0,57.0,-11.0,73.0
-24.0,-10.0,-15.0,9.0,53.0,42.0,8.0,187.0
-3.0,-6.0,-17.0,-11.0,76.0,27.0,20.0,141.0
-15.0,-7.0,-10.0,3.0,56.0,23.0,38.0,125.0
-5.0,6.0,-3.0,-37.0,28.0,0.0,26.0,157.0
-17.0,2.0,-24.0,-17.0,7.0,10.0,-22.0,112.0
-25.0,-8.0,5.0,-11.0,-1.0,10.0,-20.0,238.0
-20.0,16.0,8.0,-14.0,-20.0,13.0,10.0,303.0
-9.0,10.0,-24.0,-7.0,9.0,70.0,24.0,324.0
12.0,-4.0,-32.0,-13.0,50.0,70.0,42.0,186.0
-11.0,-1.0,-12.0,-25.0,72.0,67.0,24.0,147.0
1.0,-22.0,-28.0,-51.0,34.0,54.0,34.0,27.0
-8.0,-42.0,-29.0,-29.0,22.0,38.0,33.0,-48.0
-22.0,-22.0,-46.0,-41.0,43.0,32.0,15.0,-205.0
-19.0,-11.0,-16.0,-22.0,53.0,3.0,32.0,-517.0
-8.0,-21.0,-1.0,-9.0,77.0,-65.0,30.0,-446.0
10.0,-12.0,-17.0,-29.0,-8.0,-104.0,38.0,-9.0
-3.0,-6.0,-13.0,-53.0,-1.0,-6.0,27.0,51.0
-9.0,-4.0,-41.0,-50.0,67.0,18.0,31.0,40.0
-3.0,-6.0,-14.0,-47.0,68.0,8.0,36.0,116.0
-22.0,-16.0,-36.0,-29.0,93.0,-22.0,15.0,20.0
-39.0,-23.0,-30.0,11.0,86.0,-23.0,14.0,48.0
-31.0,-15.0,-8.0,-2.0,49.0,45.0,0.0,98.0
-34.0,-8.0,-6.0,3.0,71.0,25.0,19.0,312.0
-24.0,2.0,-3.0,19.0,69.0,48.0,51.0,384.0
-1.0,22.0,-10.0,16.0,88.0,20.0,51.0,266.0
3.0,12.0,-5.0,18.0,67.0,14.0,47.0,177.0
9.0,27.0,-13.0,16.0,8.0,61.0,49.0,124.0
-8.0,40.0,-7.0,0.0,43.0,48.0,32.0,-9.0
-4.0,12.0,0.0,-1.0,17.0,51.0,26.0,-129.0
-5.0,-6.0,1.0,-3.0,15.0,64.0,13.0,-165.0
-31.0,4.0,-22.0,-34.0,5.0,48.0,17.0,-312.0
-33.0,-8.0,-13.0,-44.0,-19.0,-1.0,14.0,-212.0
-2.0,-22.0,-13.0,-27.0,-26.0,-43.0,0.0,11.0
0.0,-16.0,3.0,-20.0,-24.0,-73.0,-5.0,82.0
-8.0,-8.0,2.0,-45.0,4.0,-38.0,-20.0,23.0
1.0,5.0,2.0,-25.0,-3.0,23.0,3.0,13.0
-35.0,1.0,16.0,-21.0,-18.0,81.0,12.0,37.0
-6.0,16.0,-3.0,-15.0,-2.0,57.0,10.0,13.0
-17.0,12.0,15.0,-20.0,21.0,-6.0,-1.0,30.0
-46.0,-6.0,-20.0,-27.0,-19.0,-22.0,15.0,3.0
2.0,22.0,-27.0,-19.0,-33.0,-20.0,32.0,10.0
-10.0,13.0,-14.0,-11.0,-15.0,-12.0,28.0,2.0
-12.0,-3.0,0.0,-5.0,-23.0,-130.0,40.0,-4.0
-7.0,6.0,27.0,-29.0,-8.0,-87.0,28.0,4.0
1.0,3.0,15.0,-28.0,-12.0,24.0,24.0,-6.0
2.0,7.0,9.0,-7.0,-10.0,14.0,-8.0,25.0
-23.0,24.0,17.0,-33.0,19.0,-6.0,-1.0,-13.0
0.0,18.0,16.0,-35.0,16.0,-32.0,15.0,-7.0
-9.0,-2.0,4.0,-8.0,19.0,29.0,25.0,2.0
-2.0,10.0,30.0,0.0,31.0,17.0,33.0,-13.0
-9.0,25.0,8.0,4.0,39.0,64.0,28.0,14.0
-10.0,-6.0,3.0,6.0,53.0,138.0,53.0,38.0
4.0,15.0,27.0,2.0,48.0,197.0,45.0,24.0
10.0,52.0,12.0,16.0,38.0,243.0,40.0,1.0
-8.0,24.0,5.0,-4.0,55.0,98.0,50.0,1.0
20.0,24.0,16.0,3.0,70.0,15.0,71.0,3.0
33.0,11.0,14.0,9.0,55.0,-5.0,70.0,0.0
-4.0,-21.0,-12.0,-32.0,42.0,4.0,34.0,-42.0
15.0,-2.0,-2.0,-25.0,70.0,24.0,25.0,-5.0
1.0,30.0,-6.0,3.0,58.0,-79.0,22.0,37.0
-10.0,40.0,-1.0,-21.0,89.0,-8.0,36.0,1.0
-14.0,20.0,-13.0,-32.0,85.0,4.0,49.0,76.0
-2.0,13.0,-20.0,-20.0,60.0,-51.0,32.0,47.0
-5.0,9.0,-33.0,-38.0,75.0,-76.0,16.0,18.0
-18.0,9.0,-16.0,-14.0,28.0,-159.0,14.0,11.0
-16.0,0.0,-4.0,3.0,43.0,-100.0,7.0,-35.0
-12.0,-1.0,-29.0,-30.0,31.0,-53.0,14.0,-39.0
-6.0,-2.0,3.0,-28.0,49.0,-39.0,25.0,-70.0
-12.0,-2.0,-21.0,-5.0,72.0,-25.0,12.0,37.0
-13.0,-2.0,-28.0,-12.0,48.0,-22.0,36.0,56.0
-21.0,2.0,-15.0,-22.0,79.0,-38.0,28.0,3.0
-6.0,22.0,-32.0,-14.0,89.0,-16.0,21.0,13.0
0.0,8.0,-7.0,-19.0,92.0,-20.0,30.0,15.0
-31.0,6.0,2.0,-12.0,78.0,-23.0,15.0,16.0
-39.0,10.0,-7.0,-37.0,78.0,-4.0,20.0,28.0
-4.0,8.0,2.0,-48.0,61.0,-15.0,-4.0,8.0
14.0,13.0,-6.0,-42.0,70.0,18.0,23.0,-4.0
-9.0,31.0,-26.0,-33.0,60.0,9.0,23.0,49.0
0.0,14.0,-31.0,-14.0,14.0,16.0,18.0,40.0
-16.0,21.0,-10.0,-24.0,-26.0,14.0,39.0,31.0
-30.0,12.0,-8.0,2.0,-44.0,31.0,-4.0,37.0
-12.0,7.0,-38.0,-31.0,12.0,54.0,7.0,2.0
-7.0,37.0,-5.0,-2.0,28.0,32.0,4.0,-9.0
-16.0,5.0,7.0,16.0,29.0,44.0,25.0,-40.0
-10.0,16.0,-1.0,13.0,10.0,41.0,45.0,-59.0
5.0,-1.0,4.0,46.0,12.0,29.0,36.0,-36.0
-2.0,0.0,-11.0,-1.0,55.0,49.0,56.0,39.0
4.0,10.0,19.0,16.0,37.0,69.0,36.0,78.0
16.0,12.0,19.0,27.0,16.0,98.0,37.0,58.0
11.0,15.0,-11.0,-15.0,1.0,105.0,53.0,71.0
5.0,-18.0,10.0,-26.0,11.0,93.0,39.0,33.0
42.0,3.0,10.0,-5.0,22.0,79.0,14.0,86.0
12.0,-13.0,-6.0,2.0,28.0,82.0,10.0,130.0
-11.0,-3.0,-2.0,-14.0,1.0,65.0,-6.0,151.0
-2.0,20.0,-9.0,-2.0,-29.0,44.0,-12.0,312.0
-14.0,-7.0,-6.0,-13.0,-31.0,73.0,7.0,418.0
-15.0,-4.0,-16.0,-28.0,-19.0,61.0,14.0,290.0
-32.0,-22.0,-6.0,-14.0,-33.0,53.0,39.0,141.0
-14.0,-13.0,2.0,-20.0,-31.0,46.0,33.0,125.0
-18.0,-13.0,-17.0,-25.0,-32.0,42.0,13.0,31.0
-14.0,-17.0,-14.0,-16.0,-14.0,19.0,12.0,-209.0
6.0,-7.0,-9.0,-27.0,-21.0,-64.0,10.0,-529.0
-16.0,-11.0,-10.0,-24.0,-58.0,-37.0,-12.0,-608.0
-8.0,-18.0,3.0,-28.0,-27.0,14.0,-6.0,-283.0
11.0,5.0,-2.0,-46.0,-38.0,30.0,25.0,-42.0
4.0,-5.0,-9.0,-47.0,-16.0,62.0,14.0,-177.0
4.0,-27.0,-22.0,-25.0,-9.0,48.0,17.0,-411.0
-8.0,-16.0,-11.0,-24.0,-14.0,49.0,14.0,-280.0
-21.0,-19.0,-1.0,-30.0,13.0,48.0,13.0,198.0
-23.0,-20.0,-15.0,-5.0,-1.0,45.0,15.0,218.0
-25.0,-26.0,4.0,-2.0,-4.0,77.0,20.0,281.0
-6.0,16.0,-2.0,-5.0,-5.0,97.0,41.0,467.0
-2.0,6.0,2.0,-5.0,-17.0,81.0,42.0,406.0
3.0,8.0,27.0,8.0,-25.0,32.0,46.0,352.0
-14.0,9.0,3.0,0.0,-22.0,8.0,10.0,107.0
-19.0,0.0,-14.0,1.0,-31.0,7.0,23.0,39.0
-3.0,22.0,-4.0,-17.0,-15.0,-7.0,24.0,-156.0
-23.0,17.0,-17.0,-32.0,-9.0,-78.0,-7.0,-399.0
-5.0,-4.0,-41.0,-8.0,-2.0,-80.0,14.0,-454.0
10.0,-8.0,13.0,-4.0,13.0,-24.0,14.0,-484.0
15.0,33.0,-6.0,20.0,34.0,49.0,14.0,-213.0
18.0,29.0,-13.0,-16.0,37.0,56.0,19.0,165.0
0.0,10.0,2.0,-42.0,5.0,57.0,22.0,73.0
4.0,31.0,-12.0,-25.0,-4.0,81.0,11.0,140.0
4.0,25.0,-12.0,-34.0,23.0,65.0,24.0,165.0
-28.0,-5.0,-33.0,-32.0,58.0,75.0,18.0,-84.0
-12.0,-29.0,-4.0,-34.0,47.0,20.0,2.0,37.0
-15.0,-15.0,-9.0,-14.0,27.0,-27.0,12.0,120.0
-16.0,-1.0,16.0,-11.0,27.0,7.0,21.0,276.0
-2.0,18.0,19.0,-21.0,48.0,17.0,27.0,227.0
-16.0,-5.0,-2.0,-21.0,65.0,41.0,4.0,100.0
-4.0,21.0,0.0,-22.0,56.0,73.0,24.0,87.0
-7.0,21.0,-6.0,-9.0,75.0,56.0,7.0,79.0
-11.0,5.0,-7.0,8.0,33.0,81.0,32.0,107.0
-13.0,10.0,2.0,12.0,15.0,78.0,22.0,104.0
4.0,-11.0,1.0,6.0,44.0,76.0,1.0,93.0
4.0,10.0,-25.0,-10.0,58.0,28.0,42.0,50.0
0.0,24.0,-11.0,-14.0,70.0,13.0,25.0,75.0
-12.0,7.0,8.0,-10.0,58.0,20.0,46.0,54.0
-5.0,-27.0,18.0,-7.0,73.0,-8.0,21.0,80.0
2.0,11.0,6.0,-18.0,82.0,23.0,20.0,72.0
-16.0,-14.0,-8.0,-13.0,53.0,0.0,15.0,28.0
-6.0,-38.0,-1.0,-1.0,64.0,-20.0,31.0,45.0
-12.0,-14.0,-6.0,-14.0,44.0,-6.0,42.0,-2.0
-9.0,-20.0,0.0,-10.0,43.0,5.0,7.0,-31.0
-11.0,12.0,26.0,-36.0,58.0,2.0,36.0,31.0
-5.0,-1.0,7.0,-30.0,74.0,7.0,0.0,59.0
-16.0,1.0,-14.0,-9.0,104.0,46.0,13.0,54.0
-1.0,-5.0,3.0,-30.0,114.0,70.0,24.0,46.0
-6.0,1.0,-13.0,-28.0,97.0,49.0,31.0,41.0
-21.0,7.0,20.0,-43.0,65.0,44.0,48.0,87.0
-12.0,-10.0,10.0,-11.0,56.0,74.0,44.0,90.0
-16.0,12.0,6.0,16.0,30.0,84.0,30.0,87.0
-7.0,-5.0,7.0,-7.0,21.0,61.0,13.0,74.0
-21.0,-11.0,-13.0,-29.0,21.0,41.0,47.0,61.0
-10.0,5.0,16.0,-14.0,47.0,76.0,31.0,16.0
-1.0,-18.0,-10.0,-12.0,62.0,71.0,22.0,15.0
-8.0,-3.0,-6.0,-23.0,43.0,28.0,34.0,25.0
-11.0,5.0,0.0,-16.0,14.0,51.0,27.0,1.0
-10.0,6.0,-10.0,-29.0,-1.0,55.0,32.0,25.0
-31.0,17.0,-10.0,-35.0,-26.0,40.0,37.0,-13.0
-20.0,2.0,-17.0,-31.0,-14.0,34.0,37.0,-55.0
-14.0,10.0,2.0,-19.0,2.0,28.0,27.0,-47.0
-12.0,25.0,8.0,-6.0,-16.0,42.0,24.0,-3.0
-6.0,31.0,-5.0,-1.0,16.0,35.0,24.0,13.0
-20.0,18.0,15.0,15.0,3.0,32.0,32.0,21.0
2.0,14.0,12.0,17.0,-14.0,78.0,42.0,37.0
11.0,18.0,-4.0,28.0,-21.0,92.0,38.0,90.0
0.0,12.0,8.0,-7.0,-55.0,39.0,24.0,112.0
17.0,43.0,24.0,2.0,-64.0,33.0,42.0,7.0
7.0,15.0,18.0,-10.0,-30.0,29.0,39.0,-27.0
-12.0,4.0,3.0,-41.0,-24.0,22.0,47.0,-7.0
2.0,22.0,23.0,-19.0,-13.0,51.0,58.0,-7.0
-11.0,23.0,40.0,-23.0,-25.0,91.0,15.0,-3.0
-17.0,28.0,9.0,-22.0,-87.0,95.0,39.0,-17.0
6.0,21.0,-6.0,-29.0,-99.0,51.0,24.0,21.0
-32.0,21.0,7.0,-30.0,-127.0,-45.0,15.0,30.0
-24.0,-13.0,-3.0,-16.0,-170.0,-27.0,31.0,31.0
-13.0,-19.0,-5.0,-28.0,-162.0,25.0,7.0,14.0
3.0,-6.0,-36.0,-24.0,-90.0,7.0,21.0,-14.0
-5.0,-11.0,-31.0,-23.0,-36.0,32.0,25.0,-15.0
-39.0,8.0,-28.0,-48.0,-33.0,23.0,37.0,-16.0
-25.0,9.0,-33.0,-25.0,-6.0,57.0,34.0,-2.0
-16.0,10.0,-15.0,-6.0,86.0,56.0,40.0,-18.0
5.0,6.0,-14.0,-17.0,105.0,23.0,79.0,-64.0
-6.0,6.0,-14.0,-33.0,49.0,57.0,56.0,-43.0
-30.0,26.0,-3.0,-37.0,75.0,5.0,50.0,10.0
-14.0,15.0,-12.0,-39.0,66.0,14.0,40.0,31.0
-9.0,18.0,-15.0,-34.0,89.0,9.0,35.0,59.0
-23.0,5.0,-14.0,-21.0,87.0,20.0,33.0,26.0
-8.0,19.0,-25.0,-36.0,88.0,38.0,-10.0,28.0
-7.0,-5.0,-12.0,-14.0,82.0,22.0,9.0,29.0
-25.0,-52.0,-42.0,27.0,75.0,28.0,2.0,-18.0
-29.0,-39.0,-56.0,8.0,105.0,16.0,-6.0,1.0
-47.0,-6.0,-49.0,-19.0,76.0,27.0,10.0,-99.0
-27.0,15.0,-26.0,-16.0,82.0,10.0,1.0,-130.0
-6.0,-7.0,-16.0,-49.0,70.0,34.0,13.0,-44.0
-33.0,-23.0,-9.0,-17.0,64.0,41.0,4.0,-72.0
-43.0,-10.0,-34.0,-22.0,67.0,17.0,12.0,14.0
-14.0,-20.0,-33.0,-26.0,53.0,37.0,28.0,129.0
-9.0,-15.0,4.0,-1.0,76.0,15.0,41.0,296.0
-2.0,6.0,-12.0,-16.0,70.0,-30.0,21.0,461.0
-10.0,-4.0,-9.0,0.0,75.0,-115.0,1.0,497.0
-4.0,-8.0,-3.0,-28.0,75.0,-116.0,27.0,303.0
10.0,-15.0,20.0,-1.0,72.0,86.0,40.0,93.0
7.0,6.0,7.0,-24.0,78.0,71.0,40.0,-62.0
11.0,7.0,-10.0,-24.0,78.0,33.0,13.0,-449.0
-7.0,-7.0,0.0,-26.0,15.0,29.0,16.0,-758.0
-24.0,-7.0,-8.0,-19.0,40.0,-50.0,18.0,-824.0
-7.0,-2.0,-8.0,2.0,60.0,5.0,2.0,-565.0
-2.0,-11.0,-5.0,-26.0,6.0,-17.0,-3.0,-207.0
-1.0,-18.0,-9.0,-6.0,49.0,-10.0,6.0,83.0
-3.0,-7.0,-11.0,-25.0,48.0,-20.0,8.0,-40.0
-14.0,-7.0,-2.0,-30.0,46.0,-4.0,10.0,-357.0
5.0,12.0,3.0,-23.0,58.0,-4.0,11.0,-193.0
17.0,20.0,-28.0,-23.0,53.0,-15.0,34.0,213.0
24.0,24.0,-12.0,-31.0,56.0,4.0,46.0,189.0
9.0,31.0,18.0,-53.0,40.0,-13.0,25.0,288.0
-24.0,10.0,-12.0,-40.0,37.0,-4.0,30.0,459.0
-19.0,0.0,-4.0,-24.0,45.0,-16.0,2.0,349.0
-25.0,-27.0,-13.0,-26.0,32.0,10.0,-1.0,247.0
-44.0,-19.0,-19.0,-47.0,105.0,6.0,18.0,127.0
-25.0,6.0,1.0,-25.0,140.0,20.0,8.0,90.0
-1.0,-15.0,-9.0,0.0,83.0,19.0,13.0,-72.0
-16.0,-8.0,-3.0,-33.0,-15.0,7.0,19.0,-193.0
-21.0,-1.0,-16.0,-17.0,-94.0,-8.0,0.0,-223.0
-32.0,25.0,-8.0,6.0,-35.0,-15.0,9.0,-345.0
-15.0,14.0,3.0,-7.0,14.0,-4.0,20.0,-124.0
-4.0,0.0,-9.0,-21.0,18.0,-19.0,37.0,138.0
-2.0,41.0,-10.0,16.0,0.0,18.0,48.0,56.0
6.0,23.0,-8.0,32.0,-5.0,8.0,23.0,120.0
-18.0,19.0,-8.0,-4.0,-18.0,8.0,17.0,21.0
-16.0,10.0,-10.0,7.0,3.0,11.0,7.0,35.0
-6.0,-5.0,-26.0,18.0,50.0,-3.0,19.0,162.0
-1.0,-1.0,-30.0,-8.0,-8.0,-70.0,16.0,83.0
-13.0,-29.0,-18.0,-28.0,-19.0,-112.0,10.0,96.0
-16.0,-12.0,0.0,-13.0,-4.0,-57.0,31.0,70.0
-14.0,-12.0,20.0,-14.0,-12.0,-35.0,30.0,78.0
-31.0,-12.0,-14.0,-4.0,0.0,-3.0,31.0,47.0
-27.0,8.0,-21.0,4.0,17.0,33.0,19.0,34.0
-12.0,14.0,-2.0,6.0,22.0,-34.0,16.0,66.0
-3.0,23.0,-1.0,37.0,23.0,-83.0,28.0,65.0
-8.0,33.0,3.0,7.0,36.0,-8.0,28.0,6.0
-1.0,68.0,-8.0,5.0,-12.0,15.0,13.0,-70.0
3.0,18.0,-18.0,16.0,5.0,13.0,36.0,-36.0
12.0,11.0,-10.0,2.0,40.0,10.0,4.0,33.0
1.0,37.0,-4.0,0.0,21.0,-15.0,2.0,96.0
1.0,25.0,2.0,3.0,20.0,23.0,33.0,159.0
-9.0,44.0,23.0,16.0,1.0,48.0,39.0,206.0
-15.0,20.0,16.0,12.0,-13.0,65.0,58.0,165.0
-18.0,12.0,17.0,4.0,-12.0,66.0,49.0,24.0
-32.0,9.0,24.0,-10.0,-17.0,74.0,44.0,-12.0
-5.0,10.0,13.0,-14.0,-11.0,71.0,36.0,12.0
-10.0,-2.0,35.0,-28.0,-9.0,80.0,18.0,-22.0
-42.0,-11.0,5.0,-36.0,-36.0,76.0,18.0,6.0
-25.0,10.0,-2.0,-41.0,-26.0,54.0,20.0,-25.0
-9.0,-3.0,7.0,-30.0,-31.0,67.0,33.0,8.0
3.0,-3.0,-10.0,-14.0,-8.0,29.0,19.0,79.0
-2.0,-2.0,-2.0,-11.0,20.0,-3.0,14.0,62.0
-14.0,-4.0,7.0,-10.0,4.0,-71.0,18.0,45.0
-1.0,29.0,-5.0,-30.0,32.0,-125.0,15.0,18.0
-3.0,4.0,-26.0,-42.0,27.0,-29.0,4.0,-3.0
11.0,-1.0,-20.0,-34.0,28.0,7.0,4.0,3.0
9.0,25.0,-8.0,-33.0,17.0,8.0,28.0,2.0
-9.0,-5.0,-3.0,6.0,28.0,43.0,18.0,-23.0
5.0,-10.0,-22.0,9.0,27.0,42.0,36.0,-44.0
-7.0,3.0,-9.0,-29.0,27.0,46.0,6.0,-34.0
3.0,-10.0,-17.0,-14.0,28.0,59.0,0.0,22.0
9.0,6.0,-9.0,-22.0,12.0,78.0,34.0,6.0
-7.0,16.0,30.0,10.0,-14.0,70.0,21.0,31.0
-9.0,-17.0,-10.0,-33.0,-54.0,72.0,12.0,66.0
-1.0,0.0,-7.0,-53.0,-18.0,71.0,27.0,11.0
-1.0,31.0,8.0,4.0,26.0,58.0,45.0,19.0
-7.0,25.0,-19.0,-9.0,33.0,67.0,40.0,-31.0
7.0,31.0,-19.0,-8.0,26.0,73.0,49.0,22.0
-9.0,7.0,-28.0,-39.0,39.0,74.0,43.0,78.0
-5.0,-12.0,1.0,-28.0,49.0,61.0,30.0,22.0
-12.0,14.0,11.0,-14.0,69.0,54.0,61.0,67.0
-2.0,7.0,-13.0,-23.0,60.0,51.0,49.0,54.0
12.0,19.0,-10.0,8.0,64.0,93.0,38.0,69.0
31.0,26.0,-2.0,12.0,69.0,69.0,47.0,77.0
17.0,2.0,7.0,10.0,31.0,70.0,21.0,33.0
-41.0,15.0,-3.0,-7.0,37.0,82.0,25.0,63.0
0.0,14.0,10.0,-24.0,53.0,53.0,39.0,43.0
-5.0,13.0,9.0,-24.0,68.0,54.0,18.0,47.0
-11.0,10.0,15.0,-28.0,44.0,71.0,-4.0,61.0
-19.0,-3.0,10.0,-14.0,27.0,58.0,21.0,35.0
13.0,30.0,-12.0,-43.0,56.0,22.0,21.0,50.0
6.0,-1.0,-11.0,-33.0,53.0,-15.0,0.0,50.0
-25.0,-2.0,-8.0,-22.0,66.0,-1.0,16.0,75.0
4.0,23.0,-11.0,-47.0,85.0,56.0,18.0,70.0
-6.0,5.0,7.0,-23.0,91.0,25.0,20.0,30.0
8.0,30.0,-2.0,-21.0,90.0,27.0,35.0,51.0
-5.0,1.0,-13.0,-31.0,61.0,86.0,-11.0,153.0
-10.0,-27.0,2.0,-46.0,65.0,123.0,-29.0,151.0
-12.0,-28.0,-38.0,-35.0,64.0,86.0,10.0,66.0
-15.0,-34.0,-13.0,-30.0,53.0,42.0,14.0,33.0
-17.0,-20.0,-22.0,-17.0,74.0,58.0,28.0,-50.0
-12.0,-30.0,-41.0,2.0,52.0,87.0,23.0,-118.0
-3.0,-33.0,-17.0,-16.0,39.0,87.0,29.0,-186.0
-21.0,-15.0,-22.0,4.0,19.0,39.0,33.0,-370.0
-19.0,-16.0,-6.0,-6.0,22.0,-12.0,23.0,-392.0
-14.0,-31.0,-40.0,-21.0,25.0,2.0,9.0,-70.0
-27.0,-38.0,-8.0,3.0,-4.0,29.0,0.0,135.0
4.0,-24.0,11.0,-3.0,18.0,1.0,17.0,241.0
16.0,-5.0,-6.0,-34.0,13.0,-59.0,19.0,302.0
-9.0,8.0,4.0,-39.0,7.0,-84.0,0.0,142.0
3.0,1.0,-22.0,-38.0,-18.0,12.0,1.0,112.0
7.0,-3.0,-2.0,-21.0,9.0,38.0,19.0,49.0
-3.0,-11.0,4.0,-14.0,22.0,35.0,5.0,26.0
-5.0,1.0,7.0,0.0,0.0,53.0,38.0,-83.0
14.0,28.0,15.0,15.0,8.0,45.0,35.0,-406.0
7.0,25.0,1.0,5.0,-7.0,56.0,24.0,-248.0
-9.0,26.0,12.0,13.0,-36.0,40.0,40.0,80.0
-3.0,12.0,10.0,10.0,-84.0,88.0,33.0,-25.0
-16.0,-6.0,7.0,6.0,-95.0,65.0,47.0,-104.0
5.0,25.0,16.0,15.0,-99.0,21.0,38.0,-105.0
-6.0,11.0,13.0,8.0,-37.0,15.0,36.0,-65.0
-13.0,-17.0,4.0,0.0,102.0,18.0,38.0,141.0
-11.0,-14.0,11.0,11.0,176.0,29.0,4.0,189.0
-24.0,-7.0,7.0,0.0,98.0,10.0,-10.0,120.0
-21.0,5.0,20.0,-9.0,-4.0,-21.0,5.0,77.0
-32.0,-13.0,-1.0,-12.0,-24.0,-49.0,19.0,-163.0
-19.0,-1.0,4.0,-7.0,-20.0,-29.0,33.0,-366.0
-3.0,5.0,10.0,16.0,50.0,15.0,20.0,-427.0
-18.0,-11.0,-24.0,-3.0,7.0,36.0,18.0,-161.0
-26.0,-5.0,7.0,-13.0,-49.0,26.0,38.0,83.0
-8.0,-8.0,-23.0,-26.0,-54.0,20.0,21.0,-18.0
-20.0,-11.0,-8.0,7.0,-38.0,29.0,35.0,155.0
4.0,-10.0,8.0,23.0,-7.0,29.0,31.0,72.0
-9.0,16.0,-20.0,-26.0,-59.0,25.0,29.0,64.0
-17.0,27.0,5.0,-10.0,-47.0,16.0,65.0,117.0
1.0,26.0,-5.0,-20.0,-41.0,-35.0,48.0,59.0
-19.0,30.0,-28.0,-65.0,-14.0,-32.0,40.0,104.0
-31.0,-5.0,-25.0,-42.0,15.0,-65.0,28.0,71.0
-39.0,-1.0,-11.0,-38.0,4.0,-123.0,34.0,255.0
-25.0,13.0,-23.0,-22.0,28.0,-4.0,23.0,237.0
-27.0,11.0,-24.0,-26.0,28.0,39.0,23.0,193.0
-8.0,20.0,-5.0,-13.0,44.0,22.0,33.0,192.0
-14.0,28.0,-21.0,-5.0,64.0,45.0,43.0,117.0
-17.0,40.0,-3.0,-13.0,64.0,53.0,42.0,54.0
-5.0,19.0,10.0,-7.0,49.0,55.0,13.0,-84.0
-32.0,8.0,-15.0,-28.0,41.0,-44.0,53.0,-276.0
5.0,2.0,-2.0,-16.0,52.0,-140.0,54.0,-529.0
1.0,25.0,8.0,6.0,83.0,-94.0,44.0,-232.0
-23.0,20.0,4.0,6.0,85.0,-2.0,42.0,116.0
15.0,4.0,-3.0,7.0,84.0,10.0,27.0,-6.0
-28.0,11.0,-11.0,9.0,70.0,-45.0,24.0,117.0
-34.0,9.0,-10.0,18.0,52.0,-66.0,9.0,119.0
-3.0,7.0,-4.0,-1.0,60.0,-27.0,30.0,83.0
-4.0,0.0,-37.0,-36.0,30.0,9.0,37.0,106.0
1.0,19.0,-57.0,-37.0,24.0,50.0,21.0,51.0
-14.0,3.0,-29.0,-47.0,45.0,47.0,48.0,92.0
-15.0,-18.0,-33.0,-48.0,70.0,40.0,39.0,72.0
-16.0,-18.0,-11.0,-34.0,56.0,47.0,6.0,84.0
-39.0,-5.0,-24.0,-42.0,21.0,46.0,6.0,66.0
-44.0,-16.0,-33.0,-33.0,33.0,62.0,12.0,71.0
-13.0,-32.0,-25.0,10.0,56.0,37.0,31.0,47.0
-31.0,-9.0,-19.0,-10.0,69.0,52.0,21.0,49.0
-29.0,-27.0,2.0,-38.0,55.0,70.0,13.0,70.0
11.0,-34.0,2.0,-31.0,7.0,64.0,27.0,65.0
-2.0,-19.0,8.0,-26.0,17.0,65.0,10.0,66.0
-3.0,1.0,-6.0,-8.0,24.0,66.0,13.0,84.0
-1.0,8.0,3.0,-14.0,-3.0,80.0,9.0,172.0
-8.0,-18.0,16.0,-7.0,27.0,93.0,16.0,122.0
-11.0,8.0,-7.0,-28.0,8.0,78.0,40.0,61.0
-8.0,5.0,-20.0,-30.0,-3.0,40.0,36.0,83.0
4.0,11.0,12.0,-6.0,19.0,50.0,59.0,96.0
-2.0,11.0,19.0,-1.0,18.0,86.0,56.0,37.0
-16.0,2.0,-1.0,16.0,52.0,97.0,38.0,-45.0
-11.0,5.0,-10.0,7.0,72.0,100.0,39.0,-50.0
7.0,-1.0,-20.0,18.0,34.0,107.0,23.0,-9.0
-10.0,-11.0,10.0,2.0,22.0,49.0,25.0,-34.0
-24.0,-3.0,12.0,5.0,38.0,6.0,20.0,-69.0
-2.0,19.0,-6.0,7.0,4.0,18.0,58.0,50.0
0.0,17.0,28.0,12.0,13.0,39.0,85.0,126.0
8.0,46.0,23.0,23.0,-4.0,57.0,66.0,116.0
34.0,15.0,-11.0,-2.0,-7.0,29.0,63.0,136.0
-2.0,21.0,-8.0,3.0,-5.0,24.0,13.0,187.0
0.0,15.0,-6.0,-1.0,-23.0,-4.0,-2.0,144.0
26.0,1.0,5.0,-29.0,17.0,10.0,12.0,35.0
2.0,26.0,-2.0,-28.0,24.0,34.0,25.0,75.0
-4.0,8.0,7.0,-19.0,39.0,2.0,45.0,194.0
2.0,38.0,2.0,-23.0,62.0,-26.0,12.0,267.0
1.0,25.0,-20.0,-31.0,67.0,-16.0,12.0,203.0
-14.0,22.0,-14.0,-43.0,55.0,-22.0,27.0,54.0
-1.0,33.0,-4.0,-45.0,36.0,-17.0,32.0,-62.0
5.0,12.0,9.0,-32.0,53.0,-33.0,12.0,-182.0
-1.0,6.0,-10.0,-44.0,65.0,-33.0,5.0,-236.0
16.0,2.0,-24.0,-34.0,54.0,-14.0,16.0,-292.0
5.0,13.0,-15.0,-24.0,12.0,-51.0,-6.0,-293.0
-19.0,0.0,-6.0,-48.0,-17.0,-39.0,-11.0,-55.0
-31.0,-9.0,-11.0,-52.0,-19.0,-67.0,-10.0,40.0
-33.0,-17.0,-6.0,-62.0,-1.0,-72.0,-24.0,-53.0
-35.0,0.0,6.0,-59.0,4.0,-58.0,-27.0,-25.0
-27.0,-13.0,20.0,-45.0,1.0,-63.0,-10.0,-12.0
-25.0,-53.0,6.0,-21.0,0.0,-49.0,-10.0,-8.0
-25.0,-19.0,-11.0,1.0,15.0,-46.0,0.0,-18.0
-9.0,-18.0,21.0,-27.0,23.0,-45.0,2.0,-24.0
-25.0,-18.0,11.0,-3.0,16.0,-59.0,-14.0,14.0
-16.0,-7.0,-1.0,-9.0,2.0,14.0,-10.0,7.0
1.0,-11.0,15.0,-36.0,-2.0,105.0,13.0,-46.0
-21.0,-14.0,-5.0,-36.0,-6.0,59.0,24.0,-53.0
-1.0,-24.0,3.0,-59.0,21.0,-6.0,14.0,-36.0
15.0,-8.0,-13.0,-52.0,31.0,31.0,34.0,3.0
4.0,-4.0,-32.0,-41.0,7.0,21.0,16.0,86.0
7.0,-16.0,-14.0,-21.0,30.0,27.0,2.0,72.0
2.0,-23.0,3.0,-3.0,17.0,72.0,46.0,73.0
17.0,28.0,24.0,-1.0,47.0,58.0,49.0,83.0
8.0,46.0,23.0,-9.0,64.0,29.0,32.0,86.0
-12.0,11.0,17.0,-5.0,65.0,-22.0,23.0,163.0
-1.0,20.0,27.0,-1.0,46.0,-6.0,27.0,265.0
8.0,22.0,6.0,1.0,45.0,53.0,38.0,261.0
-8.0,42.0,-6.0,8.0,87.0,73.0,31.0,181.0
-5.0,33.0,15.0,16.0,56.0,65.0,29.0,149.0
-16.0,22.0,17.0,-5.0,42.0,90.0,45.0,22.0
-23.0,2.0,18.0,-13.0,19.0,91.0,18.0,-55.0
-19.0,-8.0,6.0,15.0,28.0,57.0,8.0,-270.0
-36.0,5.0,-11.0,-18.0,64.0,107.0,19.0,-590.0
-44.0,6.0,-21.0,-5.0,38.0,113.0,33.0,-508.0
-31.0,27.0,-24.0,0.0,43.0,107.0,31.0,-205.0
-16.0,1.0,-6.0,-30.0,26.0,109.0,13.0,-98.0
-5.0,-5.0,-7.0,-13.0,-3.0,87.0,37.0,-1.0
-16.0,13.0,-8.0,-23.0,5.0,44.0,29.0,59.0
-25.0,7.0,-8.0,-10.0,6.0,-51.0,24.0,35.0
-4.0,4.0,-9.0,-16.0,16.0,0.0,29.0,62.0
-8.0,15.0,0.0,-10.0,15.0,98.0,42.0,92.0
0.0,19.0,2.0,-24.0,-4.0,70.0,34.0,89.0
17.0,18.0,-22.0,-37.0,43.0,71.0,21.0,50.0
-4.0,16.0,-38.0,0.0,39.0,78.0,33.0,32.0
-4.0,7.0,-43.0,-13.0,43.0,74.0,34.0,7.0
-5.0,2.0,-32.0,-28.0,37.0,79.0,27.0,37.0
-20.0,6.0,-17.0,-9.0,47.0,83.0,46.0,40.0
-11.0,8.0,-35.0,1.0,50.0,94.0,39.0,46.0
-8.0,19.0,-26.0,-17.0,21.0,71.0,7.0,153.0
-16.0,29.0,-22.0,-29.0,-2.0,76.0,18.0,241.0
-35.0,16.0,-24.0,-28.0,-4.0,69.0,32.0,169.0
-15.0,20.0,-25.0,13.0,39.0,81.0,29.0,119.0
22.0,6.0,-23.0,10.0,12.0,85.0,41.0,25.0
5.0,-16.0,0.0,2.0,39.0,69.0,39.0,-105.0
2.0,6.0,18.0,31.0,42.0,84.0,48.0,-207.0
8.0,1.0,-6.0,20.0,15.0,67.0,12.0,-411.0
-20.0,-33.0,-8.0,24.0,-12.0,37.0,8.0,-341.0
-28.0,-42.0,-15.0,3.0,-31.0,10.0,25.0,0.0
-21.0,-15.0,-2.0,-1.0,-22.0,5.0,-4.0,19.0
-20.0,-10.0,16.0,-5.0,-45.0,-2.0,18.0,0.0
-1.0,-34.0,-6.0,-17.0,-14.0,-9.0,13.0,165.0
-26.0,8.0,11.0,-8.0,-60.0,-12.0,-2.0,95.0
-24.0,34.0,3.0,-3.0,-66.0,7.0,2.0,160.0
-21.0,38.0,-11.0,-12.0,-20.0,57.0,5.0,269.0
-32.0,38.0,-30.0,-28.0,-9.0,33.0,5.0,182.0
-17.0,-4.0,-28.0,-9.0,-12.0,1.0,30.0,108.0
-31.0,-25.0,-15.0,-20.0,-27.0,-10.0,24.0,75.0
-18.0,-42.0,-39.0,-45.0,-6.0,-10.0,-14.0,-52.0
-7.0,-19.0,-28.0,-50.0,-40.0,-28.0,-14.0,-139.0
-36.0,-29.0,-10.0,-49.0,-77.0,-40.0,-14.0,-275.0
-26.0,-10.0,-3.0,-34.0,-62.0,-24.0,0.0,-489.0
-13.0,16.0,-6.0,-37.0,-20.0,-14.0,-7.0,-223.0
-17.0,-7.0,3.0,-31.0,-9.0,19.0,20.0,161.0
1.0,-22.0,-6.0,-7.0,-5.0,-2.0,36.0,127.0
21.0,3.0,0.0,-6.0,15.0,0.0,32.0,108.0
15.0,38.0,2.0,-16.0,34.0,39.0,26.0,98.0
-4.0,17.0,6.0,-17.0,29.0,42.0,27.0,81.0
5.0,36.0,32.0,6.0,30.0,44.0,54.0,144.0
17.0,49.0,-3.0,22.0,49.0,40.0,35.0,184.0
13.0,57.0,-15.0,-10.0,16.0,58.0,26.0,340.0
3.0,18.0,8.0,-21.0,-8.0,81.0,54.0,332.0
4.0,0.0,2.0,10.0,19.0,89.0,39.0,358.0
-12.0,38.0,7.0,-23.0,44.0,31.0,29.0,301.0
-5.0,38.0,24.0,-16.0,58.0,-30.0,64.0,84.0
2.0,16.0,19.0,-2.0,49.0,-55.0,41.0,63.0
-14.0,2.0,7.0,-3.0,41.0,-135.0,53.0,-128.0
4.0,7.0,12.0,13.0,35.0,-50.0,41.0,-484.0
-24.0,10.0,12.0,3.0,45.0,40.0,31.0,-620.0
-20.0,38.0,-9.0,7.0,44.0,38.0,59.0,-427.0
-14.0,20.0,-8.0,-26.0,53.0,47.0,37.0,-317.0
-18.0,16.0,-5.0,-47.0,44.0,30.0,46.0,-87.0
4.0,26.0,-15.0,-46.0,47.0,29.0,33.0,147.0
-7.0,7.0,-21.0,-54.0,73.0,0.0,28.0,49.0
-21.0,5.0,-16.0,-24.0,68.0,4.0,-2.0,134.0
-7.0,-7.0,-25.0,-27.0,67.0,9.0,4.0,103.0
3.0,-14.0,-20.0,-33.0,35.0,34.0,6.0,119.0
6.0,-25.0,-14.0,-14.0,29.0,66.0,10.0,128.0
4.0,0.0,-13.0,-21.0,34.0,64.0,19.0,86.0
8.0,-1.0,-2.0,-35.0,3.0,51.0,8.0,134.0
1.0,-12.0,-6.0,-21.0,-4.0,32.0,26.0,108.0
2.0,-2.0,-8.0,-28.0,15.0,13.0,26.0,96.0
17.0,-12.0,-19.0,-33.0,40.0,39.0,29.0,66.0
0.0,-14.0,-14.0,-32.0,55.0,71.0,12.0,70.0
0.0,13.0,11.0,-12.0,30.0,26.0,14.0,84.0
27.0,21.0,4.0,1.0,32.0,43.0,32.0,106.0
21.0,13.0,26.0,-6.0,36.0,4.0,21.0,79.0
8.0,20.0,33.0,-22.0,17.0,-3.0,16.0,60.0
-1.0,10.0,13.0,-42.0,49.0,12.0,22.0,66.0
8.0,8.0,27.0,-7.0,35.0,-28.0,20.0,68.0
5.0,-19.0,3.0,-1.0,25.0,-2.0,21.0,41.0
-19.0,-20.0,30.0,-14.0,47.0,-18.0,12.0,8.0
3.0,-6.0,20.0,-22.0,43.0,38.0,4.0,58.0
-7.0,-20.0,-11.0,-6.0,53.0,70.0,29.0,66.0
-1.0,-1.0,9.0,12.0,41.0,34.0,13.0,89.0
-4.0,-11.0,-13.0,-9.0,50.0,31.0,26.0,70.0
-12.0,-22.0,-11.0,-18.0,72.0,41.0,80.0,41.0
-8.0,1.0,-7.0,-3.0,61.0,41.0,86.0,54.0
-5.0,32.0,33.0,7.0,60.0,22.0,72.0,7.0
-21.0,25.0,29.0,-15.0,84.0,45.0,48.0,-80.0
-12.0,8.0,12.0,-13.0,85.0,26.0,21.0,-78.0
-11.0,13.0,3.0,-8.0,83.0,28.0,22.0,43.0
-37.0,-3.0,-24.0,-34.0,89.0,20.0,13.0,34.0
-20.0,-6.0,-10.0,-24.0,94.0,14.0,11.0,62.0
-41.0,5.0,-40.0,-11.0,93.0,13.0,27.0,38.0
-27.0,-31.0,-52.0,2.0,101.0,-6.0,5.0,17.0
6.0,-10.0,-3.0,-19.0,141.0,-12.0,2.0,74.0
-9.0,2.0,-13.0,-13.0,148.0,-33.0,-10.0,21.0
-31.0,0.0,-41.0,-3.0,137.0,-17.0,-15.0,44.0
-18.0,17.0,-38.0,-19.0,116.0,-4.0,25.0,35.0
-10.0,0.0,-59.0,-33.0,67.0,-22.0,1.0,46.0
-15.0,-7.0,-28.0,-14.0,44.0,-14.0,10.0,44.0
-7.0,-18.0,-32.0,-23.0,56.0,-11.0,8.0,10.0
-8.0,-8.0,-41.0,-13.0,33.0,-14.0,-16.0,7.0
6.0,-15.0,-20.0,-5.0,-20.0,6.0,-10.0,16.0
12.0,-24.0,-22.0,-33.0,-38.0,-11.0,-1.0,32.0
2.0,-5.0,-10.0,-16.0,-65.0,-20.0,-1.0,-11.0
8.0,2.0,-8.0,-23.0,-90.0,8.0,27.0,13.0
-1.0,-11.0,-10.0,-8.0,-73.0,0.0,46.0,63.0
-2.0,-11.0,-29.0,-2.0,-58.0,-23.0,10.0,81.0
-20.0,0.0,-15.0,-2.0,-11.0,-28.0,5.0,152.0
-33.0,-23.0,1.0,2.0,12.0,-16.0,20.0,314.0
6.0,-3.0,4.0,0.0,-6.0,-36.0,25.0,254.0
0.0,9.0,-1.0,7.0,-14.0,-62.0,17.0,33.0
-14.0,-9.0,-36.0,0.0,-9.0,-45.0,37.0,-40.0
-16.0,0.0,-7.0,-1.0,38.0,-30.0,50.0,-43.0
7.0,17.0,27.0,-3.0,44.0,-76.0,59.0,-121.0
-7.0,30.0,11.0,25.0,28.0,-94.0,50.0,-273.0
-14.0,12.0,-3.0,8.0,3.0,50.0,46.0,-496.0
7.0,1.0,-1.0,-5.0,-18.0,38.0,45.0,-431.0
-7.0,-11.0,20.0,18.0,-5.0,-91.0,40.0,23.0
1.0,27.0,9.0,2.0,-13.0,-61.0,65.0,-9.0
9.0,10.0,-12.0,1.0,-29.0,-42.0,51.0,-67.0
16.0,-1.0,11.0,0.0,-23.0,-35.0,44.0,49.0
0.0,-3.0,13.0,9.0,-30.0,-29.0,47.0,34.0
-15.0,-22.0,25.0,-6.0,-7.0,-17.0,36.0,136.0
-25.0,-15.0,40.0,-16.0,-17.0,5.0,37.0,76.0
-35.0,-16.0,9.0,2.0,-19.0,-14.0,22.0,144.0
-31.0,16.0,-16.0,-10.0,28.0,-11.0,28.0,193.0
-23.0,12.0,2.0,-12.0,-1.0,0.0,45.0,96.0
-5.0,-13.0,1.0,0.0,-17.0,20.0,41.0,64.0
15.0,-9.0,-11.0,27.0,-26.0,29.0,21.0,92.0
0.0,2.0,-8.0,-8.0,18.0,13.0,26.0,88.0
-1.0,1.0,-24.0,-34.0,60.0,34.0,26.0,77.0
-13.0,-11.0,-17.0,-30.0,32.0,30.0,-3.0,35.0
-34.0,15.0,-11.0,-67.0,26.0,44.0,10.0,-27.0
-29.0,3.0,-26.0,-68.0,20.0,35.0,5.0,-41.0
-39.0,-9.0,-9.0,-44.0,23.0,8.0,-10.0,-73.0
-20.0,-1.0,-14.0,-20.0,25.0,27.0,10.0,-30.0
-11.0,6.0,-27.0,-44.0,20.0,49.0,15.0,-34.0
-11.0,12.0,-5.0,-44.0,16.0,56.0,15.0,5.0
-12.0,-6.0,-3.0,-30.0,45.0,45.0,10.0,50.0
-13.0,14.0,-17.0,-40.0,44.0,68.0,2.0,86.0
-17.0,12.0,-13.0,-37.0,27.0,67.0,8.0,100.0
-15.0,-1.0,10.0,-21.0,23.0,63.0,15.0,-6.0
6.0,-1.0,1.0,-26.0,16.0,48.0,17.0,-35.0
-4.0,-14.0,20.0,-22.0,53.0,75.0,35.0,-58.0
4.0,-12.0,2.0,-22.0,75.0,119.0,31.0,16.0
5.0,0.0,-11.0,-12.0,44.0,95.0,12.0,161.0
-17.0,5.0,-8.0,-19.0,9.0,98.0,21.0,178.0
-16.0,4.0,-13.0,-44.0,9.0,81.0,49.0,148.0
-29.0,0.0,10.0,-39.0,-1.0,73.0,27.0,156.0
-27.0,20.0,13.0,-18.0,33.0,84.0,53.0,103.0
-12.0,51.0,6.0,-7.0,59.0,101.0,72.0,-67.0
-6.0,40.0,-1.0,-25.0,14.0,105.0,31.0,-226.0
8.0,30.0,-10.0,-28.0,18.0,95.0,41.0,-419.0
-6.0,41.0,-7.0,-8.0,3.0,118.0,44.0,-297.0
-16.0,45.0,-11.0,-22.0,28.0,103.0,45.0,5.0
-10.0,48.0,-21.0,-20.0,12.0,93.0,46.0,-34.0
1.0,16.0,-11.0,-6.0,-28.0,73.0,17.0,-13.0
-29.0,-4.0,-4.0,6.0,-33.0,79.0,5.0,-2.0
-16.0,8.0,-8.0,16.0,-38.0,85.0,27.0,-5.0
2.0,0.0,-9.0,-3.0,-1.0,68.0,5.0,33.0
-47.0,13.0,4.0,-9.0,-5.0,65.0,2.0,-26.0
-34.0,0.0,-11.0,-3.0,-5.0,54.0,20.0,11.0
-27.0,-26.0,-23.0,-6.0,16.0,106.0,0.0,22.0
-35.0,-53.0,-19.0,-10.0,15.0,73.0,19.0,78.0
-1.0,-47.0,-27.0,-11.0,1.0,2.0,23.0,170.0
-8.0,-10.0,-26.0,-38.0,-5.0,20.0,15.0,264.0
-19.0,-20.0,-47.0,-61.0,-12.0,62.0,17.0,261.0
-11.0,4.0,-33.0,-38.0,-18.0,57.0,21.0,210.0
-4.0,2.0,-1.0,-46.0,7.0,46.0,38.0,32.0
20.0,-23.0,8.0,-26.0,23.0,88.0,13.0,-92.0
36.0,7.0,-12.0,-33.0,5.0,46.0,6.0,-232.0
17.0,34.0,-14.0,-33.0,0.0,20.0,47.0,-655.0
3.0,29.0,17.0,9.0,0.0,53.0,18.0,-627.0
-34.0,17.0,10.0,-25.0,12.0,53.0,33.0,-209.0
-23.0,38.0,20.0,-17.0,9.0,57.0,17.0,-109.0
-1.0,34.0,-1.0,3.0,3.0,74.0,8.0,38.0
-14.0,23.0,27.0,3.0,18.0,-13.0,19.0,239.0
-9.0,19.0,42.0,11.0,26.0,-63.0,-3.0,151.0
12.0,25.0,12.0,-7.0,25.0,-18.0,14.0,145.0
-12.0,30.0,28.0,-10.0,42.0,4.0,30.0,80.0
-21.0,6.0,11.0,-8.0,56.0,35.0,27.0,104.0
6.0,14.0,19.0,-17.0,27.0,33.0,42.0,137.0
-8.0,34.0,16.0,-18.0,58.0,30.0,45.0,106.0
-7.0,1.0,17.0,9.0,60.0,42.0,35.0,89.0
19.0,3.0,10.0,-14.0,63.0,5.0,50.0,43.0
6.0,22.0,3.0,-30.0,93.0,17.0,22.0,84.0
3.0,47.0,19.0,22.0,39.0,17.0,17.0,94.0
14.0,55.0,-20.0,4.0,23.0,3.0,5.0,51.0
-2.0,27.0,-10.0,-8.0,45.0,46.0,29.0,23.0
-2.0,17.0,5.0,2.0,58.0,27.0,17.0,32.0
-2.0,1.0,-13.0,4.0,80.0,43.0,8.0,-1.0
8.0,-10.0,-9.0,7.0,69.0,69.0,31.0,16.0
-13.0,-11.0,18.0,-3.0,40.0,8.0,-1.0,40.0
-46.0,-27.0,-6.0,-12.0,23.0,-17.0,0.0,2.0
-27.0,-19.0,-36.0,-1.0,44.0,-6.0,-29.0,14.0
-23.0,-26.0,-28.0,-22.0,34.0,2.0,2.0,22.0
-20.0,-40.0,-23.0,-47.0,36.0,-8.0,-11.0,-37.0
-49.0,-19.0,-22.0,-62.0,22.0,-21.0,-2.0,-46.0
-14.0,-42.0,-29.0,-55.0,31.0,-17.0,24.0,-28.0
15.0,-50.0,-32.0,-29.0,46.0,-2.0,17.0,5.0
-6.0,-35.0,-28.0,-53.0,24.0,-15.0,32.0,21.0
12.0,-49.0,-24.0,-28.0,12.0,-9.0,8.0,29.0
-30.0,-43.0,-32.0,-4.0,32.0,-5.0,24.0,43.0
-18.0,-10.0,-20.0,-17.0,54.0,-10.0,30.0,49.0
-31.0,-7.0,10.0,-17.0,36.0,-29.0,32.0,58.0
-37.0,-4.0,-5.0,-17.0,43.0,-38.0,18.0,44.0
-1.0,5.0,3.0,-2.0,30.0,10.0,18.0,86.0
-8.0,10.0,-1.0,-1.0,21.0,-25.0,21.0,81.0
-7.0,-5.0,4.0,11.0,36.0,-21.0,21.0,78.0
-25.0,12.0,13.0,-5.0,23.0,33.0,36.0,77.0
-20.0,32.0,6.0,15.0,40.0,8.0,40.0,81.0
-26.0,8.0,21.0,1.0,46.0,-17.0,62.0,98.0
-8.0,9.0,15.0,-4.0,43.0,20.0,54.0,84.0
-2.0,33.0,42.0,-1.0,37.0,22.0,40.0,85.0
-4.0,27.0,26.0,-29.0,-4.0,13.0,28.0,37.0
-2.0,-10.0,-10.0,-22.0,-17.0,5.0,18.0,39.0
-11.0,23.0,-19.0,-39.0,-14.0,-11.0,8.0,49.0
-27.0,12.0,-21.0,-28.0,-7.0,-20.0,4.0,31.0
-37.0,-30.0,17.0,-26.0,12.0,-16.0,10.0,53.0
-17.0,-12.0,12.0,-28.0,11.0,-13.0,30.0,67.0
-12.0,-17.0,-7.0,-21.0,4.0,9.0,6.0,81.0
-9.0,-1.0,7.0,-17.0,-5.0,48.0,19.0,43.0
-12.0,-5.0,4.0,-4.0,36.0,46.0,49.0,69.0
-7.0,-7.0,-13.0,-44.0,42.0,35.0,10.0,118.0
-13.0,-9.0,-22.0,-22.0,18.0,15.0,20.0,23.0
-11.0,-5.0,-16.0,6.0,16.0,31.0,35.0,-67.0
16.0,19.0,-14.0,-24.0,27.0,8.0,21.0,-34.0
5.0,20.0,-11.0,-25.0,33.0,24.0,27.0,213.0
14.0,30.0,-21.0,-38.0,18.0,64.0,28.0,229.0
27.0,17.0,-7.0,-18.0,60.0,88.0,32.0,165.0
6.0,2.0,-10.0,-2.0,60.0,105.0,23.0,301.0
-13.0,26.0,-18.0,1.0,83.0,37.0,22.0,269.0
-1.0,45.0,3.0,22.0,72.0,27.0,38.0,202.0
-8.0,40.0,-4.0,-4.0,39.0,-6.0,48.0,24.0
-6.0,10.0,-29.0,22.0,44.0,-62.0,34.0,-293.0
0.0,12.0,-28.0,7.0,30.0,-53.0,38.0,-476.0
-9.0,43.0,-1.0,-14.0,25.0,-66.0,43.0,-180.0
-11.0,43.0,0.0,-4.0,50.0,10.0,14.0,-284.0
-13.0,22.0,16.0,-16.0,60.0,9.0,30.0,-692.0
2.0,-5.0,1.0,-18.0,32.0,-1.0,20.0,-449.0
6.0,15.0,10.0,-13.0,32.0,44.0,13.0,-31.0
-5.0,4.0,2.0,-18.0,34.0,28.0,36.0,26.0
-16.0,-5.0,-39.0,-34.0,46.0,56.0,22.0,-26.0
-27.0,2.0,-25.0,-15.0,45.0,28.0,40.0,99.0
11.0,-5.0,-22.0,-7.0,40.0,48.0,20.0,51.0
20.0,13.0,3.0,3.0,26.0,69.0,34.0,106.0
2.0,18.0,-6.0,-12.0,12.0,37.0,26.0,117.0
3.0,12.0,-22.0,-10.0,11.0,-9.0,-7.0,96.0
-8.0,-6.0,11.0,-24.0,17.0,-14.0,19.0,111.0
-18.0,-10.0,-2.0,-23.0,44.0,54.0,-2.0,104.0
-29.0,-15.0,-20.0,-21.0,35.0,42.0,9.0,141.0
-13.0,-6.0,-8.0,-31.0,24.0,54.0,-8.0,93.0
-17.0,-13.0,5.0,4.0,19.0,38.0,0.0,128.0
-25.0,-23.0,-5.0,0.0,16.0,7.0,26.0,116.0
-9.0,7.0,-14.0,-11.0,17.0,5.0,9.0,99.0
-18.0,6.0,12.0,-37.0,28.0,-3.0,19.0,100.0
-6.0,-11.0,3.0,-12.0,12.0,9.0,29.0,131.0
-21.0,-6.0,3.0,0.0,17.0,24.0,39.0,103.0
-38.0,-6.0,-5.0,-33.0,16.0,37.0,33.0,-10.0
-15.0,-2.0,-12.0,-34.0,-8.0,16.0,25.0,-102.0
0.0,-20.0,7.0,-47.0,27.0,59.0,37.0,-64.0
-6.0,-27.0,-10.0,-34.0,27.0,82.0,37.0,72.0
5.0,0.0,-7.0,-21.0,14.0,76.0,28.0,43.0
8.0,9.0,-17.0,-16.0,-10.0,50.0,45.0,36.0
1.0,4.0,-13.0,-22.0,-32.0,54.0,36.0,39.0
-12.0,0.0,-25.0,-28.0,-5.0,71.0,33.0,27.0
-26.0,-11.0,-36.0,-12.0,-2.0,34.0,26.0,32.0
-2.0,-22.0,-20.0,-1.0,-13.0,28.0,20.0,29.0
-3.0,1.0,-7.0,-18.0,-51.0,8.0,23.0,147.0
-18.0,-3.0,-14.0,-41.0,-73.0,12.0,8.0,239.0
-24.0,-14.0,-26.0,-33.0,-24.0,17.0,15.0,190.0
-34.0,13.0,9.0,-29.0,-22.0,34.0,17.0,116.0
-12.0,-8.0,9.0,-7.0,20.0,57.0,27.0,-11.0
6.0,18.0,3.0,8.0,27.0,56.0,26.0,-29.0
0.0,34.0,9.0,-9.0,37.0,76.0,45.0,15.0
8.0,-1.0,2.0,-6.0,42.0,102.0,50.0,-218.0
25.0,34.0,0.0,11.0,9.0,115.0,41.0,-297.0
8.0,47.0,36.0,22.0,35.0,73.0,33.0,-63.0
9.0,52.0,12.0,8.0,50.0,87.0,38.0,-59.0
18.0,12.0,-32.0,21.0,53.0,100.0,42.0,-157.0
4.0,4.0,5.0,27.0,38.0,76.0,42.0,-158.0
4.0,6.0,-6.0,3.0,64.0,49.0,56.0,-279.0
-2.0,0.0,18.0,5.0,41.0,54.0,35.0,-121.0
-5.0,2.0,15.0,-7.0,22.0,73.0,28.0,100.0
-19.0,-9.0,4.0,-30.0,7.0,35.0,25.0,79.0
-17.0,21.0,5.0,-35.0,-3.0,42.0,23.0,91.0
-8.0,24.0,-1.0,-28.0,13.0,38.0,8.0,53.0
-19.0,38.0,2.0,-30.0,4.0,35.0,38.0,58.0
-17.0,6.0,-30.0,-61.0,36.0,40.0,45.0,42.0
-12.0,8.0,-6.0,-22.0,22.0,49.0,12.0,31.0
-24.0,1.0,-13.0,-9.0,27.0,39.0,1.0,63.0
-2.0,-11.0,-17.0,-32.0,47.0,8.0,-26.0,34.0
-5.0,27.0,0.0,-9.0,28.0,4.0,8.0,74.0
-21.0,18.0,-12.0,-7.0,49.0,-38.0,31.0,58.0
-13.0,26.0,5.0,7.0,41.0,2.0,51.0,21.0
-20.0,9.0,-26.0,-32.0,52.0,9.0,37.0,16.0
4.0,-7.0,-29.0,-23.0,27.0,-28.0,33.0,8.0
-7.0,-12.0,-7.0,-9.0,29.0,12.0,30.0,7.0
-11.0,2.0,-15.0,-23.0,53.0,-3.0,10.0,-5.0
7.0,7.0,-31.0,-11.0,30.0,2.0,24.0,3.0
-23.0,-26.0,-17.0,-11.0,16.0,-24.0,2.0,-6.0
-13.0,-8.0,-5.0,-24.0,19.0,-17.0,8.0,7.0
-11.0,-24.0,-30.0,-30.0,35.0,-3.0,15.0,5.0
-33.0,-26.0,-18.0,-19.0,52.0,-45.0,25.0,10.0
-33.0,-6.0,-18.0,-41.0,53.0,-17.0,31.0,31.0
-16.0,-18.0,5.0,-37.0,23.0,0.0,10.0,21.0
-12.0,6.0,0.0,-16.0,43.0,1.0,0.0,10.0
-25.0,-17.0,-6.0,-4.0,29.0,-10.0,25.0,7.0
-16.0,-20.0,11.0,16.0,25.0,20.0,28.0,23.0
-13.0,0.0,1.0,4.0,64.0,25.0,40.0,7.0
-8.0,-4.0,13.0,8.0,46.0,-4.0,35.0,12.0
5.0,15.0,21.0,-17.0,41.0,-19.0,16.0,30.0
-19.0,5.0,7.0,-49.0,23.0,-18.0,29.0,60.0
-24.0,-12.0,-15.0,-24.0,-19.0,9.0,30.0,54.0
17.0,6.0,15.0,-7.0,-17.0,2.0,18.0,50.0
14.0,9.0,-3.0,-9.0,-23.0,1.0,21.0,53.0
7.0,4.0,14.0,-11.0,8.0,10.0,33.0,29.0
18.0,37.0,27.0,-32.0,14.0,8.0,2.0,31.0
1.0,40.0,-21.0,-23.0,-21.0,-33.0,42.0,15.0
-5.0,6.0,11.0,-13.0,-31.0,4.0,15.0,-25.0
-10.0,-7.0,-4.0,-4.0,13.0,-3.0,-5.0,-82.0
-6.0,-3.0,-30.0,-30.0,55.0,-19.0,2.0,-92.0
-15.0,-17.0,-16.0,-19.0,19.0,2.0,-15.0,-84.0
7.0,-20.0,-5.0,-12.0,5.0,-7.0,-9.0,-91.0
11.0,13.0,-3.0,-27.0,-18.0,18.0,-20.0,-14.0
-1.0,-13.0,-7.0,-7.0,-16.0,8.0,9.0,16.0
0.0,-23.0,7.0,-40.0,1.0,31.0,3.0,73.0
-15.0,-12.0,-6.0,-45.0,-4.0,40.0,8.0,103.0
21.0,-20.0,-7.0,-39.0,25.0,65.0,24.0,8.0
27.0,30.0,-13.0,-28.0,47.0,90.0,31.0,34.0
-2.0,30.0,-22.0,2.0,40.0,86.0,33.0,64.0
9.0,9.0,-7.0,-18.0,14.0,81.0,17.0,210.0
13.0,2.0,-10.0,-22.0,19.0,61.0,36.0,292.0
0.0,-4.0,-3.0,-17.0,41.0,58.0,25.0,162.0
-19.0,-4.0,-16.0,0.0,35.0,42.0,6.0,170.0
-29.0,-6.0,0.0,5.0,27.0,57.0,13.0,71.0
-42.0,21.0,27.0,-1.0,9.0,18.0,34.0,-24.0
-20.0,13.0,8.0,28.0,13.0,-15.0,27.0,-79.0
-19.0,28.0,7.0,22.0,40.0,3.0,31.0,-440.0
-19.0,34.0,16.0,7.0,69.0,-20.0,30.0,-563.0
8.0,16.0,15.0,5.0,68.0,53.0,28.0,-71.0
-9.0,11.0,17.0,-1.0,67.0,79.0,54.0,47.0
-17.0,-19.0,20.0,19.0,44.0,62.0,27.0,-217.0
-10.0,-5.0,11.0,6.0,26.0,68.0,10.0,-46.0
-8.0,11.0,-18.0,-9.0,64.0,24.0,35.0,202.0
-24.0,17.0,-23.0,-10.0,70.0,29.0,31.0,336.0
-17.0,14.0,-25.0,-15.0,83.0,54.0,25.0,414.0
-8.0,16.0,-36.0,-14.0,89.0,50.0,42.0,425.0
-19.0,38.0,-22.0,-33.0,87.0,43.0,29.0,357.0
-8.0,38.0,-21.0,-25.0,78.0,58.0,38.0,288.0
5.0,34.0,-6.0,-23.0,52.0,76.0,59.0,70.0
-5.0,27.0,-4.0,2.0,70.0,61.0,59.0,-312.0
-1.0,13.0,13.0,-3.0,75.0,34.0,45.0,-572.0
-12.0,-3.0,-11.0,-29.0,67.0,32.0,27.0,-649.0
-32.0,-15.0,-5.0,-13.0,79.0,47.0,30.0,-562.0
-10.0,-9.0,18.0,-1.0,37.0,14.0,2.0,-133.0
-21.0,-15.0,0.0,-12.0,31.0,8.0,35.0,190.0
-15.0,20.0,11.0,4.0,49.0,62.0,37.0,111.0
-5.0,24.0,14.0,-8.0,8.0,43.0,25.0,200.0
-12.0,12.0,10.0,-34.0,9.0,29.0,47.0,122.0
-9.0,-7.0,0.0,-31.0,34.0,30.0,40.0,134.0
-8.0,4.0,-13.0,-19.0,48.0,42.0,36.0,145.0
24.0,-5.0,-12.0,-32.0,23.0,22.0,10.0,125.0
4.0,-33.0,19.0,-47.0,31.0,15.0,13.0,163.0
-9.0,-27.0,6.0,-20.0,31.0,38.0,-3.0,94.0
7.0,-28.0,9.0,-12.0,46.0,9.0,-16.0,129.0
-20.0,-43.0,7.0,-22.0,36.0,0.0,1.0,95.0
-17.0,-56.0,-5.0,-22.0,4.0,-13.0,22.0,100.0
-8.0,-20.0,-5.0,-10.0,-27.0,-17.0,19.0,92.0
-25.0,-23.0,-10.0,9.0,-52.0,-18.0,13.0,125.0
-20.0,-16.0,-1.0,-2.0,-30.0,-13.0,22.0,194.0
-5.0,8.0,-15.0,-8.0,-34.0,6.0,17.0,203.0
3.0,10.0,-33.0,10.0,-31.0,6.0,12.0,145.0
-2.0,-11.0,-10.0,-8.0,-4.0,27.0,20.0,112.0
-3.0,-2.0,-25.0,-13.0,5.0,15.0,17.0,30.0
-10.0,18.0,-20.0,-23.0,-4.0,-6.0,-2.0,-92.0
-6.0,4.0,-15.0,-22.0,12.0,-7.0,6.0,-132.0
-15.0,-7.0,-42.0,-19.0,7.0,-2.0,-15.0,-242.0
-4.0,-5.0,-25.0,-35.0,-18.0,-41.0,2.0,-248.0
-17.0,-16.0,-30.0,-31.0,-29.0,-43.0,15.0,-39.0
-41.0,-26.0,-49.0,-23.0,-48.0,-3.0,-4.0,37.0
-23.0,5.0,-20.0,-9.0,-66.0,-17.0,5.0,-21.0
-39.0,3.0,-16.0,-22.0,-68.0,23.0,4.0,34.0
-35.0,3.0,-26.0,-10.0,-62.0,-4.0,8.0,33.0
-7.0,3.0,-2.0,-40.0,-29.0,-14.0,24.0,71.0
-17.0,-12.0,-7.0,-38.0,-16.0,4.0,21.0,67.0
-20.0,-2.0,-25.0,-10.0,-8.0,-48.0,37.0,69.0
-21.0,3.0,-23.0,-35.0,-16.0,-69.0,61.0,75.0
-20.0,7.0,6.0,-28.0,-17.0,-52.0,45.0,9.0
-31.0,1.0,9.0,-9.0,-19.0,4.0,51.0,26.0
-27.0,30.0,-15.0,7.0,-20.0,8.0,41.0,15.0
-18.0,17.0,-5.0,-7.0,-5.0,4.0,48.0,44.0
-9.0,16.0,2.0,-3.0,-20.0,8.0,64.0,54.0
-4.0,29.0,-13.0,-18.0,-9.0,-24.0,10.0,28.0
-24.0,-13.0,-4.0,-14.0,0.0,-2.0,25.0,30.0
-4.0,6.0,10.0,-13.0,-17.0,48.0,54.0,136.0
6.0,17.0,-10.0,-19.0,14.0,45.0,38.0,264.0
27.0,16.0,3.0,-2.0,5.0,14.0,22.0,224.0
15.0,33.0,-7.0,-40.0,-7.0,40.0,30.0,137.0
-9.0,29.0,-21.0,-34.0,23.0,71.0,34.0,23.0
12.0,22.0,-2.0,-9.0,24.0,49.0,47.0,-94.0
-1.0,17.0,5.0,7.0,35.0,58.0,44.0,-214.0
8.0,7.0,12.0,4.0,31.0,61.0,29.0,-370.0
16.0,34.0,-24.0,-2.0,36.0,66.0,14.0,-370.0
9.0,39.0,-3.0,15.0,39.0,77.0,15.0,5.0
-33.0,21.0,18.0,11.0,34.0,53.0,39.0,218.0
-31.0,25.0,-7.0,-8.0,64.0,70.0,45.0,34.0
-3.0,0.0,-14.0,-22.0,66.0,29.0,24.0,69.0
3.0,-2.0,-5.0,-19.0,68.0,-13.0,19.0,67.0
15.0,-8.0,-11.0,-14.0,87.0,-29.0,51.0,31.0
-1.0,18.0,-11.0,-13.0,94.0,-12.0,27.0,64.0
2.0,43.0,4.0,-9.0,91.0,33.0,5.0,87.0
4.0,16.0,7.0,16.0,105.0,18.0,24.0,107.0
-17.0,31.0,-5.0,-16.0,89.0,65.0,21.0,40.0
-43.0,5.0,8.0,-44.0,60.0,54.0,28.0,63.0
-30.0,17.0,17.0,-4.0,81.0,78.0,-8.0,30.0
-24.0,50.0,12.0,-4.0,101.0,79.0,1.0,55.0
2.0,7.0,11.0,5.0,62.0,9.0,12.0,13.0
0.0,-5.0,-10.0,-42.0,50.0,6.0,-13.0,-13.0
-14.0,-4.0,-11.0,-51.0,30.0,-23.0,2.0,37.0
-12.0,-7.0,-8.0,-34.0,20.0,13.0,6.0,26.0
-14.0,-19.0,-11.0,-26.0,23.0,29.0,2.0,20.0
-19.0,0.0,-9.0,-37.0,33.0,44.0,13.0,-50.0
-10.0,15.0,-29.0,-25.0,66.0,53.0,7.0,16.0
21.0,5.0,-9.0,5.0,41.0,67.0,10.0,44.0
-8.0,19.0,-4.0,-13.0,44.0,65.0,8.0,9.0
-26.0,3.0,-32.0,-6.0,41.0,75.0,4.0,-25.0
-13.0,-5.0,-13.0,-31.0,36.0,77.0,11.0,-82.0
-17.0,2.0,-6.0,-29.0,49.0,78.0,22.0,12.0
0.0,9.0,-8.0,-40.0,42.0,90.0,35.0,1.0
10.0,12.0,-16.0,-28.0,25.0,90.0,30.0,3.0
8.0,-13.0,4.0,-2.0,47.0,83.0,58.0,83.0
-6.0,2.0,-21.0,-9.0,49.0,64.0,46.0,44.0
-20.0,-5.0,-31.0,0.0,47.0,57.0,23.0,55.0
-5.0,-19.0,-25.0,-9.0,63.0,20.0,22.0,47.0
9.0,13.0,-11.0,7.0,31.0,42.0,40.0,-15.0
11.0,-12.0,-1.0,-3.0,44.0,62.0,48.0,-25.0
4.0,-7.0,-12.0,-4.0,69.0,43.0,51.0,82.0
14.0,-5.0,12.0,-10.0,60.0,84.0,79.0,108.0
9.0,19.0,2.0,-9.0,80.0,47.0,51.0,76.0
15.0,-19.0,17.0,-4.0,110.0,25.0,44.0,196.0
12.0,-25.0,13.0,-14.0,66.0,37.0,38.0,314.0
-6.0,39.0,-5.0,-11.0,39.0,5.0,51.0,241.0
24.0,-8.0,5.0,-31.0,42.0,8.0,53.0,58.0
1.0,15.0,-2.0,-19.0,21.0,-45.0,40.0,-177.0
9.0,1.0,-3.0,-14.0,13.0,-56.0,36.0,-562.0
13.0,-20.0,10.0,-2.0,46.0,6.0,18.0,-599.0
-10.0,9.0,-15.0,2.0,41.0,-1.0,29.0,-207.0
-18.0,18.0,-12.0,-9.0,27.0,-12.0,32.0,-356.0
-2.0,20.0,15.0,-4.0,41.0,-33.0,36.0,-362.0
-2.0,-7.0,8.0,-11.0,24.0,-33.0,27.0,190.0
-27.0,20.0,10.0,2.0,25.0,-11.0,27.0,163.0
-14.0,6.0,-18.0,-30.0,5.0,-53.0,36.0,40.0
-32.0,-27.0,-1.0,-15.0,-43.0,-29.0,4.0,51.0
-48.0,-5.0,4.0,-7.0,-53.0,2.0,4.0,-49.0
-18.0,-5.0,-16.0,-47.0,-15.0,-1.0,1.0,-111.0
-6.0,2.0,-2.0,-29.0,8.0,10.0,-13.0,-137.0
-23.0,2.0,-32.0,0.0,-16.0,-20.0,13.0,122.0
-19.0,-6.0,-36.0,-6.0,-29.0,-8.0,23.0,249.0
-17.0,-1.0,-44.0,10.0,-26.0,-18.0,11.0,186.0
-17.0,-7.0,-66.0,16.0,-15.0,-61.0,15.0,172.0
-41.0,-35.0,-33.0,20.0,-19.0,-43.0,12.0,159.0
-31.0,-46.0,-44.0,-2.0,-46.0,-62.0,-8.0,79.0
-19.0,-22.0,-43.0,-12.0,-45.0,-92.0,2.0,74.0
-13.0,-27.0,-38.0,3.0,-81.0,-36.0,10.0,92.0
3.0,-21.0,-42.0,-3.0,-85.0,15.0,14.0,-254.0
-14.0,6.0,-17.0,14.0,-59.0,39.0,19.0,-382.0
4.0,3.0,-50.0,-1.0,-22.0,67.0,14.0,-32.0
-5.0,-10.0,-21.0,11.0,-16.0,107.0,24.0,137.0
-4.0,-8.0,23.0,-9.0,-21.0,105.0,45.0,95.0
2.0,-14.0,30.0,-10.0,-15.0,-18.0,45.0,117.0
20.0,1.0,27.0,8.0,-19.0,-58.0,27.0,108.0
17.0,-4.0,26.0,-14.0,16.0,-32.0,32.0,89.0
-1.0,-10.0,27.0,22.0,6.0,-70.0,48.0,87.0
13.0,-4.0,11.0,11.0,-39.0,-22.0,35.0,73.0
21.0,-11.0,13.0,-19.0,-33.0,80.0,34.0,82.0
4.0,-15.0,21.0,-13.0,-20.0,69.0,32.0,55.0
-14.0,-14.0,36.0,-37.0,-18.0,73.0,14.0,34.0
16.0,9.0,39.0,-55.0,-28.0,78.0,34.0,20.0
10.0,-1.0,47.0,-65.0,-36.0,50.0,19.0,12.0
8.0,11.0,63.0,-92.0,-3.0,67.0,14.0,24.0
17.0,18.0,52.0,-110.0,14.0,67.0,42.0,29.0
-9.0,-5.0,69.0,-96.0,4.0,66.0,32.0,21.0
-3.0,14.0,95.0,-102.0,8.0,67.0,20.0,24.0
-21.0,-8.0,91.0,-137.0,10.0,61.0,35.0,17.0
-29.0,0.0,106.0,-137.0,11.0,76.0,44.0,12.0
-7.0,12.0,85.0,-108.0,19.0,51.0,17.0,46.0
-23.0,21.0,80.0,-80.0,8.0,66.0,25.0,52.0
-20.0,8.0,89.0,-84.0,-22.0,53.0,16.0,22.0
-14.0,-12.0,65.0,-99.0,-10.0,41.0,12.0,21.0
-17.0,22.0,75.0,-72.0,7.0,69.0,19.0,14.0
-13.0,7.0,53.0,-71.0,-7.0,40.0,1.0,-13.0
-29.0,36.0,35.0,-68.0,1.0,54.0,14.0,35.0
-25.0,44.0,-4.0,-41.0,-9.0,35.0,0.0,125.0
-45.0,21.0,-40.0,-11.0,-7.0,59.0,-6.0,236.0
-42.0,44.0,-54.0,6.0,17.0,75.0,4.0,206.0
-9.0,34.0,-84.0,26.0,19.0,70.0,27.0,134.0
6.0,38.0,-83.0,47.0,7.0,64.0,-3.0,55.0
-14.0,30.0,-91.0,35.0,11.0,62.0,4.0,-52.0
-31.0,28.0,-97.0,46.0,23.0,47.0,27.0,-142.0
-27.0,8.0,-88.0,40.0,47.0,51.0,2.0,-419.0
-18.0,20.0,-60.0,51.0,85.0,102.0,37.0,-514.0
-17.0,40.0,-93.0,72.0,63.0,69.0,33.0,-211.0
-42.0,-2.0,-92.0,48.0,60.0,56.0,2.0,-14.0
-30.0,20.0,-78.0,60.0,73.0,54.0,21.0,-30.0
-39.0,24.0,-121.0,47.0,64.0,68.0,28.0,27.0
-24.0,29.0,-90.0,43.0,64.0,40.0,29.0,213.0
-7.0,21.0,-71.0,44.0,58.0,8.0,22.0,308.0
-33.0,21.0,-57.0,69.0,66.0,20.0,15.0,155.0
-37.0,13.0,-50.0,64.0,60.0,17.0,20.0,71.0
-33.0,-18.0,-70.0,27.0,92.0,23.0,13.0,32.0
-27.0,14.0,-73.0,41.0,112.0,-10.0,24.0,-18.0
-20.0,-8.0,-50.0,13.0,81.0,0.0,27.0,-35.0
-10.0,-12.0,-52.0,21.0,113.0,2.0,10.0,-91.0
-7.0,23.0,-45.0,23.0,106.0,33.0,20.0,-29.0
-16.0,1.0,-3.0,4.0,94.0,9.0,26.0,28.0
-4.0,3.0,6.0,3.0,90.0,-8.0,22.0,42.0
-12.0,6.0,7.0,4.0,71.0,17.0,20.0,96.0
-7.0,-4.0,-3.0,-4.0,84.0,-3.0,49.0,137.0
22.0,3.0,-3.0,-13.0,94.0,34.0,25.0,190.0
13.0,-10.0,1.0,-30.0,100.0,41.0,12.0,51.0
13.0,-20.0,21.0,-30.0,94.0,33.0,53.0,-13.0
22.0,-41.0,33.0,-17.0,104.0,13.0,35.0,43.0
1.0,-38.0,13.0,-29.0,82.0,9.0,31.0,2.0
-12.0,-14.0,4.0,-16.0,94.0,2.0,39.0,47.0
-16.0,-20.0,8.0,-3.0,106.0,-7.0,50.0,38.0
-13.0,-20.0,2.0,-39.0,77.0,-3.0,54.0,40.0
6.0,2.0,0.0,-43.0,60.0,-7.0,51.0,39.0
15.0,-8.0,-10.0,-19.0,30.0,9.0,42.0,15.0
14.0,-32.0,15.0,-8.0,49.0,4.0,50.0,32.0
16.0,5.0,28.0,-12.0,39.0,10.0,54.0,-80.0
8.0,5.0,7.0,-19.0,28.0,70.0,37.0,-128.0
6.0,17.0,21.0,-9.0,40.0,90.0,43.0,36.0
4.0,17.0,18.0,-33.0,18.0,41.0,50.0,145.0
0.0,14.0,26.0,-23.0,4.0,44.0,39.0,153.0
-12.0,17.0,14.0,-21.0,-20.0,54.0,54.0,160.0
-9.0,-10.0,14.0,-4.0,-30.0,-16.0,47.0,60.0
-17.0,3.0,16.0,5.0,-49.0,-45.0,27.0,24.0
-20.0,-10.0,-2.0,-9.0,-51.0,-7.0,2.0,-36.0
-11.0,11.0,-12.0,-28.0,-14.0,30.0,-20.0,-118.0
-20.0,4.0,-3.0,-29.0,-29.0,34.0,20.0,-183.0
-18.0,9.0,6.0,-26.0,-20.0,19.0,29.0,-257.0
-6.0,18.0,-6.0,-44.0,-35.0,13.0,0.0,-24.0
-4.0,15.0,21.0,-40.0,-36.0,38.0,12.0,329.0
-20.0,3.0,13.0,-30.0,-3.0,57.0,47.0,455.0
4.0,-4.0,-2.0,-18.0,11.0,64.0,17.0,383.0
4.0,11.0,6.0,-19.0,20.0,28.0,13.0,229.0
-8.0,-4.0,2.0,2.0,9.0,3.0,8.0,24.0
13.0,7.0,5.0,-1.0,-7.0,-27.0,-4.0,-96.0
3.0,21.0,3.0,-19.0,16.0,-16.0,-2.0,-227.0
7.0,33.0,18.0,1.0,20.0,14.0,-2.0,-736.0
4.0,22.0,-16.0,1.0,19.0,1.0,16.0,-1083.0
2.0,30.0,-5.0,2.0,53.0,46.0,10.0,-543.0
11.0,26.0,2.0,-9.0,43.0,29.0,18.0,24.0
20.0,11.0,16.0,-8.0,40.0,38.0,25.0,24.0
3.0,-4.0,24.0,-17.0,21.0,40.0,8.0,141.0
-20.0,-22.0,-4.0,-18.0,16.0,16.0,-4.0,182.0
-41.0,-3.0,-16.0,-8.0,22.0,28.0,21.0,160.0
-23.0,-4.0,-26.0,-12.0,28.0,-13.0,10.0,155.0
0.0,-1.0,13.0,-24.0,42.0,-16.0,9.0,124.0
-19.0,-13.0,-4.0,-36.0,39.0,6.0,16.0,159.0
1.0,-28.0,-14.0,-24.0,49.0,-10.0,10.0,105.0
-1.0,23.0,-5.0,-42.0,48.0,-2.0,23.0,66.0
-16.0,36.0,-23.0,-53.0,2.0,-16.0,31.0,63.0
-8.0,14.0,3.0,-23.0,11.0,-24.0,41.0,100.0
12.0,5.0,5.0,-22.0,80.0,40.0,40.0,116.0
5.0,20.0,6.0,-19.0,92.0,17.0,29.0,60.0
-2.0,36.0,7.0,-22.0,53.0,-6.0,27.0,100.0
1.0,27.0,-5.0,-25.0,43.0,14.0,40.0,218.0
-11.0,4.0,20.0,-24.0,9.0,-19.0,50.0,151.0
-12.0,13.0,10.0,-9.0,1.0,6.0,39.0,46.0
-41.0,34.0,16.0,6.0,14.0,1.0,42.0,11.0
-27.0,15.0,15.0,6.0,39.0,-3.0,30.0,8.0
-39.0,0.0,-11.0,6.0,78.0,32.0,27.0,73.0
-15.0,-7.0,-2.0,-22.0,40.0,29.0,27.0,70.0
-4.0,-18.0,-8.0,-40.0,35.0,48.0,16.0,189.0
-31.0,-12.0,-9.0,-13.0,28.0,31.0,38.0,295.0
-8.0,13.0,-21.0,-5.0,-1.0,3.0,17.0,293.0
2.0,-8.0,-16.0,-34.0,9.0,-5.0,-5.0,224.0
-14.0,-22.0,-6.0,-43.0,0.0,-3.0,31.0,38.0
-30.0,-26.0,-36.0,-37.0,-9.0,1.0,21.0,-33.0
-6.0,-27.0,-30.0,-48.0,0.0,13.0,20.0,-91.0
0.0,-26.0,-41.0,-65.0,22.0,17.0,-12.0,-333.0
-2.0,-35.0,-37.0,-47.0,14.0,-10.0,12.0,-529.0
-2.0,-36.0,-11.0,-68.0,-5.0,2.0,19.0,-211.0
-18.0,-34.0,-7.0,-50.0,-8.0,8.0,9.0,35.0
-6.0,-17.0,-5.0,-29.0,-12.0,7.0,32.0,-21.0
-12.0,2.0,-11.0,-29.0,4.0,2.0,10.0,89.0
-13.0,17.0,0.0,-41.0,7.0,13.0,4.0,59.0
-1.0,25.0,-5.0,-59.0,-11.0,39.0,-4.0,87.0
-9.0,-3.0,-9.0,10.0,-5.0,73.0,14.0,124.0
-3.0,-14.0,-17.0,11.0,-2.0,44.0,24.0,60.0
-8.0,3.0,-8.0,16.0,6.0,75.0,21.0,101.0
-12.0,-5.0,-7.0,2.0,1.0,90.0,31.0,74.0
-5.0,5.0,-7.0,-16.0,-15.0,39.0,39.0,102.0
5.0,17.0,-3.0,19.0,-5.0,58.0,6.0,123.0
-29.0,-5.0,-20.0,10.0,7.0,46.0,37.0,122.0
-14.0,-22.0,11.0,12.0,3.0,45.0,62.0,131.0
1.0,2.0,3.0,-21.0,-8.0,-2.0,19.0,74.0
-1.0,18.0,2.0,-34.0,16.0,-7.0,17.0,66.0
4.0,2.0,-17.0,-8.0,35.0,61.0,15.0,38.0
13.0,-1.0,-20.0,-28.0,28.0,28.0,28.0,22.0
31.0,-1.0,15.0,-43.0,6.0,-17.0,4.0,8.0
25.0,11.0,-3.0,-46.0,-8.0,15.0,50.0,-1.0
0.0,4.0,10.0,-55.0,-9.0,50.0,24.0,41.0
-20.0,12.0,1.0,-42.0,1.0,65.0,-5.0,50.0
-1.0,16.0,-12.0,-35.0,-14.0,37.0,11.0,32.0
-12.0,4.0,-26.0,-28.0,-5.0,24.0,-2.0,12.0
-11.0,0.0,-8.0,11.0,9.0,27.0,39.0,17.0
2.0,-1.0,-10.0,2.0,49.0,22.0,14.0,24.0
0.0,13.0,-11.0,-24.0,39.0,32.0,17.0,6.0
-8.0,-10.0,0.0,19.0,5.0,22.0,30.0,27.0
-12.0,-18.0,-21.0,-1.0,33.0,22.0,25.0,103.0
-21.0,-7.0,-2.0,-17.0,24.0,0.0,37.0,189.0
-45.0,-28.0,-37.0,-24.0,39.0,4.0,23.0,174.0
-16.0,7.0,-28.0,3.0,44.0,-12.0,19.0,73.0
-39.0,25.0,13.0,-6.0,18.0,-37.0,32.0,18.0
-41.0,-3.0,-21.0,-26.0,41.0,-28.0,15.0,-113.0
-31.0,7.0,-6.0,2.0,31.0,-15.0,0.0,-195.0
-51.0,37.0,16.0,-45.0,24.0,-33.0,11.0,-333.0
-42.0,18.0,-3.0,-2.0,49.0,-21.0,24.0,-448.0
-37.0,20.0,-6.0,0.0,21.0,-19.0,19.0,-202.0
-7.0,-3.0,-8.0,-25.0,34.0,-45.0,18.0,-46.0
-7.0,5.0,3.0,-11.0,24.0,-44.0,56.0,-69.0
-10.0,20.0,-5.0,-13.0,35.0,-47.0,56.0,15.0
-2.0,-6.0,9.0,-13.0,83.0,-4.0,50.0,49.0
-16.0,2.0,-6.0,3.0,73.0,13.0,50.0,83.0
-31.0,25.0,-16.0,6.0,49.0,13.0,17.0,157.0
1.0,34.0,15.0,6.0,49.0,34.0,35.0,152.0
30.0,24.0,14.0,25.0,78.0,58.0,50.0,114.0
35.0,45.0,29.0,11.0,86.0,41.0,25.0,92.0
9.0,28.0,9.0,9.0,56.0,14.0,31.0,170.0
-3.0,20.0,20.0,3.0,46.0,40.0,28.0,213.0
0.0,28.0,8.0,-5.0,37.0,15.0,33.0,138.0
-12.0,-1.0,-10.0,-25.0,35.0,4.0,48.0,76.0
-11.0,-19.0,11.0,-12.0,59.0,50.0,27.0,-23.0
0.0,-16.0,-1.0,6.0,29.0,65.0,40.0,-91.0
11.0,-1.0,-12.0,-8.0,15.0,61.0,40.0,-131.0
8.0,-12.0,4.0,-5.0,29.0,71.0,8.0,-219.0
29.0,3.0,5.0,-19.0,28.0,88.0,31.0,-260.0
5.0,-11.0,-9.0,-2.0,19.0,88.0,18.0,-83.0
-2.0,1.0,1.0,-3.0,12.0,43.0,13.0,51.0
-7.0,37.0,-12.0,-28.0,14.0,-65.0,23.0,30.0
-22.0,11.0,-9.0,-32.0,-17.0,-71.0,9.0,90.0
-23.0,-18.0,-14.0,-53.0,-24.0,13.0,-2.0,66.0
-36.0,-26.0,-15.0,-29.0,-10.0,30.0,-3.0,83.0
-8.0,-16.0,-10.0,-16.0,1.0,93.0,2.0,112.0
-33.0,-10.0,-18.0,-46.0,1.0,73.0,6.0,99.0
11.0,-9.0,-18.0,-8.0,1.0,85.0,-6.0,-17.0
3.0,-7.0,-7.0,11.0,20.0,138.0,21.0,-116.0
-17.0,-12.0,-6.0,6.0,30.0,107.0,-10.0,-17.0
15.0,-17.0,-37.0,-5.0,50.0,119.0,-30.0,-40.0
-3.0,-11.0,-11.0,-19.0,49.0,65.0,18.0,-29.0
-2.0,7.0,-9.0,-5.0,25.0,39.0,-18.0,-38.0
-29.0,19.0,-13.0,-10.0,11.0,55.0,7.0,-87.0
-24.0,-1.0,-4.0,-20.0,12.0,16.0,21.0,-40.0
-31.0,-12.0,-10.0,-43.0,26.0,-7.0,1.0,47.0
-43.0,15.0,3.0,-13.0,23.0,18.0,11.0,81.0
-25.0,15.0,-6.0,-34.0,0.0,27.0,0.0,27.0
14.0,10.0,-7.0,-47.0,6.0,45.0,16.0,22.0
-6.0,21.0,-12.0,-10.0,11.0,74.0,22.0,46.0
-5.0,20.0,19.0,8.0,21.0,54.0,30.0,177.0
11.0,22.0,8.0,12.0,21.0,52.0,48.0,308.0
-27.0,31.0,-14.0,6.0,16.0,-10.0,50.0,379.0
17.0,5.0,-7.0,-29.0,23.0,-71.0,33.0,373.0
7.0,6.0,-14.0,-49.0,15.0,-43.0,38.0,218.0
-3.0,-3.0,3.0,-16.0,46.0,16.0,41.0,91.0
-6.0,5.0,-18.0,-15.0,53.0,18.0,47.0,-50.0
-1.0,17.0,2.0,-10.0,36.0,6.0,40.0,-370.0
17.0,7.0,7.0,3.0,75.0,24.0,29.0,-738.0
-20.0,41.0,-22.0,-25.0,65.0,32.0,36.0,-720.0
13.0,31.0,20.0,-41.0,33.0,19.0,16.0,-472.0
-23.0,36.0,17.0,-34.0,35.0,-11.0,18.0,-79.0
-23.0,34.0,4.0,-45.0,53.0,10.0,31.0,174.0
-3.0,30.0,4.0,-24.0,70.0,27.0,32.0,15.0
-6.0,27.0,-28.0,-1.0,66.0,13.0,33.0,125.0
-24.0,-14.0,-16.0,-12.0,63.0,24.0,37.0,112.0
-15.0,7.0,8.0,-3.0,53.0,4.0,54.0,87.0
-9.0,10.0,3.0,0.0,98.0,9.0,32.0,120.0
-14.0,6.0,2.0,-16.0,75.0,23.0,34.0,95.0
4.0,7.0,18.0,7.0,53.0,-18.0,16.0,133.0
6.0,12.0,17.0,21.0,50.0,17.0,-1.0,81.0
-1.0,23.0,18.0,9.0,-3.0,5.0,42.0,124.0
-13.0,-1.0,13.0,33.0,-7.0,-12.0,28.0,67.0
-1.0,11.0,-36.0,-9.0,27.0,-7.0,13.0,82.0
-33.0,-10.0,-27.0,-9.0,23.0,-33.0,25.0,71.0
-25.0,-14.0,-4.0,10.0,20.0,-23.0,8.0,42.0
-38.0,-12.0,-25.0,-11.0,29.0,-47.0,8.0,44.0
-25.0,-23.0,-16.0,-14.0,40.0,-33.0,30.0,8.0
-16.0,-11.0,6.0,-30.0,49.0,4.0,15.0,43.0
-18.0,-22.0,8.0,-37.0,9.0,9.0,29.0,38.0
3.0,6.0,-18.0,-46.0,-3.0,27.0,41.0,38.0
-9.0,0.0,-8.0,-1.0,28.0,13.0,37.0,3.0
-2.0,0.0,-19.0,7.0,30.0,12.0,39.0,26.0
-8.0,17.0,-20.0,-16.0,44.0,1.0,22.0,37.0
-4.0,4.0,-14.0,-35.0,18.0,12.0,30.0,-15.0
9.0,10.0,0.0,-26.0,9.0,22.0,38.0,-105.0
-2.0,12.0,21.0,3.0,5.0,22.0,17.0,-36.0
-23.0,16.0,-10.0,0.0,-19.0,66.0,32.0,84.0
-5.0,28.0,-5.0,7.0,-29.0,36.0,30.0,-1.0
-2.0,-8.0,-6.0,-3.0,-59.0,36.0,28.0,76.0
-27.0,-29.0,-28.0,-16.0,-61.0,17.0,34.0,108.0
-20.0,-11.0,-4.0,-17.0,-52.0,36.0,9.0,119.0
2.0,-18.0,-1.0,-38.0,-42.0,40.0,29.0,147.0
-16.0,-17.0,-31.0,-48.0,-38.0,-2.0,62.0,21.0
-29.0,-19.0,-27.0,-42.0,-45.0,65.0,45.0,-15.0
-23.0,-26.0,-30.0,-24.0,-69.0,63.0,12.0,-17.0
-24.0,-3.0,-38.0,-18.0,-59.0,42.0,-6.0,23.0
0.0,17.0,-13.0,-14.0,-34.0,68.0,8.0,42.0
-3.0,24.0,18.0,-4.0,-23.0,88.0,17.0,30.0
13.0,-14.0,12.0,-12.0,-35.0,111.0,20.0,42.0
-14.0,-28.0,0.0,-20.0,-53.0,132.0,21.0,22.0
-15.0,-25.0,8.0,-23.0,-33.0,119.0,19.0,8.0
-11.0,-21.0,-2.0,-4.0,-36.0,110.0,34.0,-27.0
-28.0,9.0,-25.0,-6.0,-37.0,130.0,29.0,-21.0
-8.0,8.0,-3.0,-5.0,-27.0,94.0,4.0,-16.0
-23.0,-14.0,4.0,-12.0,6.0,68.0,14.0,-15.0
28.0,-2.0,9.0,-26.0,16.0,37.0,16.0,3.0
21.0,23.0,20.0,-7.0,34.0,66.0,16.0,82.0
0.0,17.0,9.0,-24.0,53.0,90.0,14.0,126.0
23.0,0.0,14.0,6.0,58.0,93.0,9.0,75.0
-8.0,11.0,20.0,-19.0,87.0,102.0,16.0,58.0
-11.0,9.0,27.0,-12.0,75.0,61.0,8.0,33.0
-14.0,14.0,32.0,4.0,100.0,63.0,49.0,42.0
-14.0,34.0,24.0,-33.0,114.0,61.0,48.0,24.0
-5.0,43.0,11.0,-18.0,132.0,123.0,49.0,35.0
-11.0,45.0,12.0,9.0,123.0,69.0,33.0,2.0
-18.0,0.0,-10.0,-32.0,90.0,37.0,24.0,-40.0
-37.0,-12.0,-8.0,-41.0,94.0,41.0,33.0,-2.0
-45.0,9.0,-7.0,-10.0,94.0,-35.0,23.0,35.0
-5.0,16.0,-18.0,-22.0,49.0,-59.0,41.0,22.0
-12.0,8.0,20.0,-20.0,56.0,-34.0,21.0,-21.0
-23.0,-14.0,-14.0,-37.0,72.0,43.0,16.0,-12.0
-9.0,-33.0,-20.0,-45.0,94.0,-5.0,8.0,-40.0
-17.0,-26.0,3.0,-25.0,96.0,1.0,10.0,-13.0
-11.0,3.0,-14.0,-23.0,60.0,29.0,-3.0,-16.0
-9.0,-8.0,2.0,-7.0,81.0,32.0,33.0,-18.0
-11.0,1.0,-14.0,-39.0,66.0,23.0,27.0,28.0
21.0,20.0,-29.0,-67.0,65.0,-39.0,24.0,5.0
0.0,18.0,-33.0,-37.0,94.0,-39.0,29.0,9.0
0.0,28.0,-7.0,-38.0,86.0,-19.0,2.0,10.0
-6.0,20.0,-11.0,-23.0,56.0,8.0,32.0,12.0
-9.0,7.0,-20.0,-15.0,45.0,13.0,25.0,18.0
-13.0,9.0,8.0,-14.0,28.0,-3.0,27.0,11.0
-28.0,12.0,-2.0,-5.0,36.0,4.0,18.0,5.0
6.0,19.0,3.0,-13.0,64.0,38.0,10.0,-7.0
-13.0,12.0,-4.0,-10.0,98.0,54.0,22.0,6.0
-13.0,6.0,-4.0,-9.0,101.0,39.0,28.0,3.0
-4.0,-8.0,1.0,-15.0,96.0,32.0,32.0,15.0
6.0,-13.0,7.0,-7.0,77.0,15.0,21.0,14.0
-1.0,20.0,16.0,18.0,62.0,24.0,27.0,23.0
6.0,8.0,11.0,28.0,58.0,32.0,32.0,53.0
-11.0,19.0,-10.0,-1.0,20.0,19.0,41.0,28.0
-25.0,18.0,7.0,-5.0,25.0,29.0,36.0,50.0
-1.0,9.0,20.0,-3.0,-13.0,35.0,19.0,66.0
-12.0,16.0,12.0,16.0,-34.0,30.0,41.0,104.0
11.0,8.0,20.0,10.0,-20.0,27.0,12.0,184.0
-3.0,22.0,18.0,-10.0,-31.0,21.0,19.0,176.0
3.0,15.0,12.0,-1.0,-16.0,13.0,30.0,259.0
-15.0,9.0,-5.0,-19.0,-25.0,8.0,24.0,199.0
-20.0,4.0,14.0,-26.0,-25.0,-5.0,60.0,41.0
-32.0,0.0,-21.0,-22.0,3.0,17.0,25.0,93.0
-37.0,-22.0,-47.0,-53.0,-25.0,30.0,5.0,6.0
-12.0,-13.0,-13.0,-52.0,-40.0,26.0,-6.0,-166.0
-24.0,-31.0,-17.0,-18.0,-55.0,18.0,-8.0,-155.0
2.0,-30.0,-14.0,-15.0,-56.0,35.0,-8.0,-207.0
-6.0,-4.0,-31.0,-13.0,-31.0,57.0,1.0,-257.0
-16.0,-24.0,-28.0,-44.0,-29.0,36.0,24.0,-76.0
-27.0,-9.0,-17.0,-68.0,-43.0,34.0,1.0,-234.0
-28.0,-34.0,-25.0,-29.0,-66.0,21.0,29.0,-518.0
-25.0,-22.0,4.0,-37.0,-67.0,10.0,18.0,-471.0
-25.0,-38.0,4.0,-29.0,-62.0,25.0,30.0,-89.0
-20.0,-33.0,28.0,-30.0,-59.0,35.0,26.0,94.0
-14.0,10.0,3.0,-8.0,-45.0,39.0,42.0,74.0
17.0,-21.0,-24.0,-16.0,-23.0,47.0,45.0,195.0
-5.0,7.0,12.0,-25.0,-41.0,47.0,40.0,90.0
-5.0,28.0,-13.0,-9.0,-37.0,28.0,41.0,148.0
-27.0,8.0,3.0,5.0,-20.0,27.0,11.0,120.0
-20.0,21.0,-17.0,10.0,-38.0,43.0,29.0,123.0
-6.0,31.0,-3.0,-23.0,-34.0,38.0,17.0,156.0
12.0,24.0,7.0,-10.0,-27.0,42.0,38.0,148.0
21.0,25.0,-19.0,2.0,-23.0,25.0,19.0,176.0
-12.0,34.0,-4.0,-2.0,-26.0,10.0,16.0,112.0
3.0,14.0,-31.0,13.0,-34.0,-2.0,44.0,135.0
-9.0,14.0,-20.0,25.0,-19.0,16.0,29.0,70.0
11.0,21.0,-2.0,12.0,-59.0,10.0,40.0,41.0
4.0,6.0,14.0,-6.0,-52.0,0.0,32.0,21.0
-10.0,18.0,-7.0,2.0,-8.0,13.0,41.0,27.0
21.0,33.0,-11.0,25.0,2.0,37.0,40.0,77.0
-1.0,50.0,19.0,2.0,23.0,31.0,40.0,112.0
7.0,43.0,8.0,1.0,22.0,0.0,44.0,52.0
2.0,19.0,0.0,8.0,16.0,17.0,18.0,46.0
-14.0,19.0,-5.0,-11.0,39.0,12.0,23.0,77.0
9.0,5.0,12.0,6.0,49.0,1.0,24.0,119.0
-3.0,-19.0,2.0,-17.0,36.0,14.0,1.0,247.0
3.0,-14.0,-29.0,-5.0,40.0,-1.0,7.0,218.0
-7.0,-13.0,-11.0,-6.0,44.0,-38.0,12.0,157.0
-23.0,-11.0,-26.0,-25.0,60.0,-19.0,15.0,82.0
-16.0,-18.0,-18.0,-8.0,75.0,-11.0,23.0,-14.0
-2.0,-13.0,-1.0,-25.0,41.0,-58.0,23.0,-46.0
-5.0,-12.0,-24.0,-36.0,61.0,-36.0,20.0,-142.0
-31.0,-18.0,-37.0,-61.0,53.0,-45.0,17.0,-370.0
-23.0,-7.0,-42.0,-57.0,63.0,-52.0,6.0,-297.0
-20.0,-51.0,-34.0,-45.0,46.0,-25.0,12.0,91.0
-13.0,-32.0,-34.0,-37.0,43.0,-35.0,19.0,-11.0
-9.0,-27.0,-28.0,-18.0,92.0,-36.0,-8.0,-91.0
-8.0,-12.0,-32.0,-17.0,89.0,-84.0,8.0,-153.0
-15.0,-1.0,-29.0,-11.0,110.0,-61.0,-6.0,-484.0
-9.0,-22.0,-22.0,-25.0,101.0,-17.0,-13.0,-492.0
-15.0,-10.0,-22.0,-18.0,77.0,-29.0,-30.0,-46.0
-11.0,-5.0,-1.0,-1.0,132.0,14.0,-16.0,123.0
-4.0,14.0,-10.0,-17.0,137.0,25.0,6.0,18.0
-1.0,5.0,-10.0,0.0,171.0,6.0,2.0,153.0
-6.0,1.0,-34.0,6.0,165.0,-14.0,14.0,71.0
-24.0,41.0,-31.0,-21.0,135.0,-8.0,-10.0,131.0
6.0,57.0,-5.0,-15.0,170.0,-38.0,22.0,133.0
13.0,45.0,-21.0,-8.0,180.0,-74.0,26.0,131.0
6.0,60.0,-13.0,-16.0,165.0,6.0,24.0,138.0
-2.0,49.0,-21.0,-1.0,109.0,-39.0,31.0,62.0
12.0,36.0,-2.0,-4.0,103.0,-65.0,50.0,97.0
13.0,31.0,-1.0,2.0,88.0,25.0,69.0,109.0
17.0,20.0,-3.0,22.0,77.0,13.0,53.0,151.0
12.0,32.0,-3.0,13.0,113.0,15.0,63.0,74.0
-20.0,8.0,9.0,-14.0,110.0,21.0,61.0,69.0
-23.0,19.0,9.0,-25.0,94.0,30.0,28.0,55.0
-26.0,20.0,-14.0,-24.0,52.0,36.0,31.0,63.0
-27.0,7.0,-12.0,3.0,3.0,15.0,42.0,47.0
-4.0,-8.0,-2.0,6.0,38.0,44.0,29.0,59.0
-12.0,-1.0,-20.0,-29.0,32.0,54.0,36.0,58.0
-20.0,17.0,-7.0,-14.0,-23.0,51.0,29.0,14.0
-14.0,-1.0,10.0,-10.0,-16.0,41.0,50.0,43.0
11.0,15.0,12.0,-16.0,-28.0,49.0,50.0,8.0
-13.0,1.0,20.0,-6.0,-40.0,67.0,48.0,58.0
-31.0,20.0,3.0,-13.0,-53.0,62.0,54.0,26.0
-3.0,-4.0,-10.0,-37.0,-70.0,39.0,32.0,14.0
-12.0,-19.0,-1.0,-37.0,-48.0,58.0,28.0,42.0
-6.0,-10.0,10.0,-36.0,-51.0,56.0,36.0,15.0
6.0,-20.0,-10.0,-20.0,-40.0,54.0,54.0,5.0
-4.0,9.0,-1.0,2.0,-58.0,44.0,22.0,-20.0
0.0,22.0,14.0,6.0,-75.0,-12.0,12.0,-14.0
-9.0,3.0,8.0,-2.0,-56.0,24.0,8.0,-43.0
-36.0,-38.0,4.0,-14.0,-67.0,6.0,10.0,-34.0
-43.0,-24.0,-2.0,-31.0,-63.0,16.0,30.0,-27.0
-15.0,-45.0,8.0,-14.0,-56.0,65.0,30.0,-6.0
8.0,-31.0,23.0,-10.0,-52.0,53.0,22.0,6.0
-8.0,-3.0,11.0,-28.0,-56.0,51.0,8.0,7.0
-2.0,-3.0,-10.0,-30.0,-58.0,25.0,2.0,25.0
13.0,-1.0,-6.0,-34.0,-65.0,29.0,4.0,1.0
-2.0,-10.0,-16.0,-12.0,-62.0,20.0,8.0,1.0
3.0,5.0,7.0,-21.0,-45.0,29.0,30.0,24.0
-9.0,3.0,5.0,-19.0,-43.0,30.0,27.0,21.0
2.0,27.0,6.0,-11.0,-4.0,47.0,9.0,27.0
43.0,34.0,20.0,-7.0,-31.0,69.0,20.0,36.0
28.0,47.0,27.0,-13.0,-42.0,47.0,40.0,6.0
9.0,37.0,38.0,3.0,-9.0,71.0,29.0,-1.0
-3.0,12.0,12.0,16.0,-38.0,48.0,26.0,-33.0
-29.0,14.0,15.0,7.0,-31.0,28.0,37.0,-37.0
-1.0,4.0,0.0,-26.0,-16.0,23.0,32.0,-24.0
-4.0,-16.0,-30.0,-31.0,18.0,35.0,24.0,-22.0
-28.0,-29.0,-26.0,-29.0,11.0,29.0,13.0,0.0
-20.0,-27.0,-31.0,-28.0,17.0,-2.0,19.0,19.0
-19.0,-45.0,-14.0,-11.0,16.0,10.0,16.0,122.0
-3.0,-53.0,-7.0,-34.0,30.0,9.0,-16.0,165.0
-20.0,-30.0,1.0,-10.0,19.0,-14.0,-17.0,86.0
-21.0,-20.0,-5.0,-15.0,7.0,-12.0,0.0,41.0
-16.0,-28.0,-9.0,-30.0,50.0,15.0,1.0,-30.0
-37.0,3.0,-17.0,-45.0,45.0,29.0,-2.0,-134.0
-4.0,-7.0,-21.0,-32.0,59.0,51.0,8.0,-182.0
-4.0,-15.0,10.0,-29.0,49.0,48.0,22.0,-251.0
-17.0,12.0,21.0,-30.0,68.0,62.0,9.0,-262.0
-3.0,-5.0,24.0,1.0,78.0,51.0,29.0,-32.0
-3.0,9.0,-11.0,-11.0,92.0,13.0,43.0,68.0
-17.0,16.0,-19.0,4.0,98.0,21.0,20.0,28.0
-5.0,20.0,-33.0,0.0,111.0,32.0,51.0,80.0
7.0,32.0,-14.0,26.0,152.0,82.0,61.0,56.0
-10.0,25.0,0.0,8.0,121.0,68.0,56.0,100.0
-4.0,28.0,-10.0,-23.0,131.0,63.0,61.0,108.0
-23.0,30.0,1.0,-10.0,119.0,70.0,26.0,104.0
-16.0,29.0,-29.0,-26.0,70.0,48.0,43.0,128.0
7.0,37.0,-15.0,7.0,77.0,68.0,27.0,83.0
-28.0,15.0,14.0,-4.0,74.0,65.0,24.0,108.0
-23.0,17.0,8.0,4.0,80.0,54.0,29.0,75.0
9.0,38.0,-2.0,-2.0,55.0,57.0,6.0,72.0
4.0,18.0,-1.0,-32.0,32.0,49.0,30.0,141.0
11.0,10.0,-3.0,-21.0,69.0,69.0,36.0,151.0
11.0,-1.0,-10.0,-28.0,72.0,62.0,18.0,155.0
-19.0,2.0,-24.0,-16.0,64.0,22.0,37.0,122.0
-26.0,21.0,-2.0,-18.0,18.0,48.0,21.0,39.0
-31.0,-18.0,-18.0,-31.0,7.0,57.0,7.0,-59.0
-36.0,-28.0,-29.0,-20.0,8.0,75.0,18.0,-168.0
-33.0,-38.0,-5.0,-23.0,22.0,94.0,-3.0,-104.0
-20.0,-31.0,1.0,-9.0,41.0,86.0,-4.0,50.0
-20.0,-16.0,-6.0,-25.0,1.0,107.0,18.0,5.0
1.0,-13.0,-13.0,-18.0,13.0,78.0,18.0,26.0
4.0,-11.0,-5.0,3.0,11.0,39.0,10.0,37.0
-15.0,-20.0,-7.0,-26.0,-8.0,-36.0,27.0,-49.0
21.0,-2.0,0.0,-29.0,-2.0,-84.0,34.0,32.0
20.0,-7.0,-14.0,-19.0,-15.0,10.0,22.0,21.0
23.0,22.0,-17.0,-13.0,-11.0,85.0,13.0,49.0
-8.0,15.0,-17.0,-13.0,-7.0,49.0,12.0,108.0
-23.0,-11.0,-8.0,-17.0,-7.0,17.0,27.0,121.0
-9.0,-19.0,-17.0,-5.0,-13.0,23.0,8.0,163.0
-5.0,-62.0,-29.0,-25.0,-14.0,31.0,20.0,103.0
-3.0,-8.0,-1.0,-11.0,-28.0,31.0,34.0,68.0
-14.0,18.0,-15.0,16.0,-25.0,10.0,31.0,108.0
5.0,5.0,-17.0,6.0,-3.0,6.0,21.0,161.0
-2.0,2.0,-4.0,-1.0,-21.0,6.0,14.0,134.0
-14.0,-28.0,-16.0,-29.0,-39.0,16.0,13.0,34.0
-36.0,-8.0,-25.0,-30.0,-37.0,15.0,-14.0,-17.0
-21.0,-9.0,9.0,-28.0,-52.0,-9.0,-11.0,-87.0
-18.0,-10.0,4.0,-44.0,-42.0,21.0,10.0,-137.0
-23.0,17.0,-10.0,-54.0,-19.0,44.0,40.0,-254.0
-24.0,21.0,8.0,-60.0,-14.0,21.0,35.0,-366.0
-25.0,10.0,-7.0,-23.0,-4.0,9.0,50.0,-121.0
-10.0,14.0,3.0,0.0,-34.0,20.0,45.0,56.0
-20.0,10.0,12.0,-17.0,-19.0,5.0,25.0,-30.0
-6.0,33.0,-10.0,-10.0,44.0,-2.0,37.0,33.0
-20.0,38.0,3.0,13.0,31.0,2.0,32.0,19.0
5.0,28.0,5.0,27.0,16.0,9.0,44.0,27.0
16.0,50.0,27.0,12.0,10.0,21.0,37.0,51.0
-16.0,37.0,10.0,-11.0,48.0,6.0,45.0,50.0
-23.0,16.0,-7.0,-1.0,53.0,29.0,54.0,177.0
-25.0,-1.0,9.0,4.0,35.0,44.0,21.0,267.0
-27.0,28.0,1.0,-10.0,50.0,19.0,30.0,259.0
-12.0,38.0,-10.0,-3.0,24.0,21.0,30.0,151.0
7.0,20.0,10.0,-11.0,17.0,-8.0,16.0,125.0
-8.0,69.0,15.0,-1.0,39.0,-3.0,47.0,2.0
7.0,52.0,20.0,-18.0,50.0,-21.0,44.0,-95.0
12.0,4.0,23.0,-9.0,61.0,-48.0,20.0,-287.0
-2.0,7.0,-2.0,0.0,67.0,-23.0,28.0,-687.0
-8.0,16.0,1.0,-30.0,69.0,-28.0,10.0,-427.0
-15.0,13.0,17.0,-13.0,55.0,-15.0,13.0,32.0
8.0,-21.0,-6.0,-37.0,41.0,-18.0,40.0,-61.0
7.0,-11.0,-34.0,-40.0,44.0,-3.0,10.0,8.0
-14.0,0.0,-28.0,-44.0,55.0,-25.0,4.0,47.0
-3.0,-21.0,-15.0,-41.0,46.0,-17.0,2.0,62.0
-5.0,-23.0,-28.0,-8.0,32.0,-1.0,13.0,123.0
-6.0,2.0,-33.0,-38.0,37.0,-37.0,36.0,77.0
12.0,3.0,1.0,-10.0,74.0,-12.0,24.0,79.0
17.0,5.0,-12.0,-7.0,58.0,4.0,30.0,27.0
-6.0,19.0,-16.0,-11.0,49.0,12.0,22.0,51.0
-13.0,-10.0,-30.0,10.0,55.0,29.0,5.0,66.0
-13.0,-22.0,-26.0,-1.0,47.0,49.0,25.0,41.0
-18.0,-11.0,-7.0,-4.0,36.0,53.0,29.0,-19.0
12.0,5.0,-5.0,-22.0,6.0,38.0,20.0,32.0
-10.0,4.0,11.0,-11.0,11.0,36.0,42.0,100.0
-31.0,-9.0,-32.0,-8.0,61.0,22.0,24.0,66.0
-8.0,3.0,-11.0,-20.0,42.0,73.0,26.0,94.0
-11.0,-3.0,21.0,13.0,1.0,57.0,33.0,49.0
-8.0,11.0,14.0,31.0,45.0,39.0,30.0,53.0
2.0,30.0,13.0,27.0,27.0,48.0,78.0,20.0
-27.0,2.0,-2.0,10.0,31.0,37.0,39.0,-10.0
-18.0,37.0,6.0,20.0,44.0,64.0,25.0,31.0
13.0,13.0,-3.0,7.0,21.0,40.0,24.0,42.0
-17.0,16.0,-5.0,-24.0,34.0,74.0,39.0,26.0
-4.0,34.0,-7.0,-19.0,31.0,84.0,42.0,11.0
-24.0,-12.0,-29.0,-22.0,36.0,38.0,15.0,83.0
-47.0,12.0,9.0,-18.0,24.0,8.0,18.0,119.0
-25.0,10.0,9.0,-10.0,4.0,16.0,-23.0,76.0
-18.0,5.0,-2.0,-14.0,40.0,95.0,-4.0,61.0
-24.0,16.0,14.0,-11.0,29.0,65.0,12.0,29.0
-14.0,5.0,-24.0,-21.0,50.0,42.0,-7.0,-16.0
-12.0,12.0,3.0,-14.0,66.0,62.0,33.0,26.0
-16.0,34.0,28.0,-11.0,79.0,73.0,25.0,70.0
-9.0,7.0,14.0,-26.0,77.0,77.0,35.0,100.0
-10.0,3.0,5.0,-23.0,15.0,40.0,50.0,72.0
-18.0,-9.0,3.0,-10.0,0.0,41.0,50.0,47.0
-24.0,-10.0,16.0,-14.0,-24.0,65.0,40.0,61.0
-3.0,-13.0,9.0,-18.0,26.0,34.0,32.0,42.0
-20.0,-51.0,2.0,-21.0,55.0,29.0,23.0,44.0
-21.0,-32.0,-5.0,-12.0,45.0,72.0,8.0,30.0
-3.0,-29.0,5.0,-14.0,47.0,61.0,21.0,20.0
-6.0,1.0,-11.0,-18.0,24.0,68.0,12.0,13.0
-1.0,15.0,-1.0,-13.0,28.0,44.0,-6.0,27.0
0.0,16.0,0.0,4.0,21.0,1.0,-10.0,32.0
3.0,3.0,-46.0,-12.0,-2.0,1.0,0.0,0.0
-15.0,15.0,-11.0,-30.0,0.0,19.0,-8.0,14.0
11.0,14.0,-8.0,-2.0,-5.0,20.0,-11.0,21.0
24.0,-34.0,-13.0,-22.0,19.0,8.0,15.0,2.0
7.0,-8.0,-17.0,-36.0,15.0,27.0,25.0,6.0
11.0,-22.0,-26.0,-33.0,-3.0,23.0,36.0,9.0
3.0,-11.0,-8.0,-28.0,25.0,14.0,29.0,-27.0
5.0,11.0,-2.0,-4.0,40.0,19.0,26.0,-29.0
-4.0,5.0,-11.0,4.0,27.0,9.0,46.0,12.0
-11.0,-10.0,-3.0,-4.0,11.0,-1.0,34.0,10.0
-8.0,5.0,-2.0,-11.0,-15.0,-33.0,15.0,-17.0
-23.0,5.0,-18.0,-1.0,-14.0,-48.0,38.0,7.0
-18.0,1.0,-28.0,-13.0,-32.0,-26.0,16.0,23.0
-21.0,15.0,-38.0,-17.0,-38.0,-13.0,15.0,-13.0
-35.0,4.0,-12.0,-18.0,-11.0,-15.0,21.0,-3.0
-6.0,19.0,-9.0,-35.0,15.0,12.0,38.0,14.0
-5.0,26.0,-1.0,-37.0,27.0,0.0,45.0,14.0
5.0,3.0,17.0,-36.0,28.0,-22.0,24.0,-3.0
-8.0,0.0,14.0,-28.0,36.0,-5.0,43.0,-35.0
-8.0,17.0,5.0,-22.0,45.0,-44.0,34.0,-26.0
9.0,28.0,1.0,-10.0,9.0,-24.0,20.0,-5.0
-8.0,17.0,7.0,-39.0,-13.0,-35.0,10.0,-13.0
-11.0,-20.0,8.0,-65.0,12.0,-73.0,19.0,3.0
-25.0,-26.0,-2.0,-38.0,7.0,-39.0,24.0,-5.0
-16.0,-40.0,-11.0,-12.0,3.0,-53.0,22.0,-12.0
-6.0,-20.0,-12.0,-25.0,8.0,-55.0,13.0,1.0
-14.0,-8.0,-28.0,-25.0,-11.0,-44.0,13.0,-22.0
-24.0,-46.0,-22.0,-42.0,-16.0,-29.0,-4.0,37.0
-21.0,-14.0,-14.0,-57.0,-13.0,-7.0,-6.0,141.0
-7.0,-19.0,-14.0,-63.0,-10.0,14.0,-3.0,162.0
-1.0,-36.0,-11.0,-55.0,-24.0,39.0,-3.0,83.0
-13.0,-34.0,-23.0,-42.0,-49.0,32.0,0.0,25.0
-20.0,-26.0,-33.0,-46.0,-14.0,-15.0,10.0,-46.0
-13.0,-11.0,-10.0,-33.0,-1.0,-41.0,24.0,-91.0
-17.0,-7.0,-5.0,-19.0,-22.0,0.0,16.0,-118.0
-14.0,1.0,2.0,-14.0,7.0,-14.0,22.0,-251.0
-18.0,-23.0,-1.0,-3.0,-1.0,-68.0,27.0,-227.0
-18.0,-23.0,-38.0,16.0,16.0,-56.0,45.0,-13.0
-4.0,10.0,-15.0,18.0,45.0,30.0,59.0,41.0
0.0,24.0,19.0,9.0,42.0,54.0,51.0,29.0
-1.0,24.0,23.0,18.0,30.0,38.0,45.0,56.0
-10.0,42.0,5.0,12.0,13.0,46.0,44.0,3.0
-7.0,47.0,11.0,-3.0,31.0,56.0,48.0,-5.0
-18.0,25.0,24.0,3.0,47.0,86.0,46.0,78.0
-5.0,28.0,-6.0,4.0,61.0,86.0,21.0,117.0
-12.0,16.0,-8.0,-6.0,43.0,102.0,0.0,59.0
-20.0,-7.0,-7.0,-26.0,43.0,94.0,29.0,-41.0
-17.0,-8.0,4.0,-19.0,23.0,67.0,18.0,-102.0
-31.0,21.0,-2.0,-23.0,31.0,65.0,0.0,2.0
11.0,10.0,-33.0,-15.0,46.0,56.0,33.0,34.0
-4.0,-6.0,14.0,10.0,27.0,90.0,36.0,12.0
-25.0,24.0,11.0,5.0,53.0,73.0,29.0,37.0
-8.0,-11.0,-1.0,23.0,60.0,69.0,18.0,5.0
-21.0,-19.0,3.0,12.0,53.0,88.0,26.0,54.0
-3.0,3.0,5.0,-4.0,49.0,91.0,34.0,18.0
-4.0,8.0,3.0,22.0,72.0,90.0,25.0,18.0
-11.0,49.0,-1.0,-5.0,69.0,67.0,41.0,27.0
14.0,50.0,-2.0,4.0,58.0,77.0,38.0,83.0
11.0,-4.0,-27.0,-22.0,60.0,41.0,31.0,361.0
-3.0,15.0,-21.0,-14.0,40.0,35.0,6.0,478.0
0.0,11.0,-8.0,-17.0,63.0,72.0,27.0,361.0
-2.0,23.0,-1.0,-43.0,60.0,53.0,46.0,285.0
1.0,37.0,-31.0,-22.0,50.0,36.0,22.0,187.0
-13.0,-1.0,-26.0,-25.0,61.0,29.0,23.0,-51.0
-21.0,20.0,-12.0,-13.0,47.0,28.0,30.0,-201.0
-9.0,1.0,-11.0,-34.0,40.0,35.0,32.0,-557.0
-3.0,26.0,-27.0,-40.0,52.0,47.0,25.0,-1055.0
-9.0,38.0,-24.0,-9.0,50.0,40.0,48.0,-750.0
-9.0,20.0,-11.0,-15.0,82.0,23.0,49.0,-11.0
-6.0,30.0,-8.0,-20.0,89.0,22.0,40.0,24.0
3.0,0.0,6.0,-19.0,49.0,16.0,24.0,119.0
18.0,29.0,-3.0,-29.0,53.0,36.0,37.0,151.0
14.0,27.0,4.0,-21.0,36.0,43.0,53.0,64.0
12.0,8.0,8.0,-13.0,41.0,21.0,41.0,148.0
-15.0,7.0,6.0,-21.0,59.0,-1.0,32.0,82.0
-30.0,3.0,7.0,11.0,47.0,-12.0,41.0,155.0
-24.0,17.0,2.0,15.0,67.0,25.0,47.0,108.0
-23.0,19.0,2.0,-12.0,49.0,26.0,27.0,130.0
-18.0,0.0,-5.0,-9.0,38.0,-15.0,1.0,98.0
-40.0,-27.0,-3.0,0.0,66.0,-19.0,12.0,98.0
-6.0,-12.0,2.0,13.0,62.0,-24.0,59.0,124.0
7.0,9.0,-6.0,0.0,77.0,-6.0,25.0,66.0
-1.0,5.0,10.0,-3.0,65.0,29.0,-4.0,79.0
8.0,-6.0,17.0,-5.0,55.0,14.0,28.0,62.0
-2.0,3.0,9.0,-9.0,75.0,25.0,35.0,84.0
14.0,44.0,15.0,-7.0,40.0,22.0,12.0,74.0
4.0,25.0,-11.0,-28.0,-13.0,30.0,-15.0,64.0
7.0,25.0,-22.0,-10.0,-36.0,27.0,-17.0,56.0
-12.0,20.0,-14.0,-12.0,-16.0,32.0,-11.0,41.0
-4.0,18.0,-21.0,-25.0,-28.0,66.0,-7.0,53.0
14.0,20.0,-20.0,-28.0,-75.0,42.0,2.0,59.0
-10.0,-2.0,-5.0,-24.0,-51.0,14.0,8.0,62.0
-6.0,-13.0,-17.0,-30.0,-20.0,-1.0,-3.0,71.0
-10.0,-29.0,-41.0,-30.0,-27.0,-3.0,9.0,49.0
-13.0,-2.0,-54.0,-29.0,-14.0,6.0,17.0,39.0
1.0,-7.0,-15.0,-20.0,-7.0,14.0,27.0,64.0
-2.0,-18.0,25.0,-15.0,-46.0,0.0,45.0,72.0
-5.0,-24.0,7.0,-31.0,-26.0,-14.0,40.0,51.0
-14.0,-14.0,6.0,-23.0,-18.0,-1.0,29.0,82.0
-15.0,-7.0,-8.0,-45.0,-25.0,28.0,22.0,76.0
9.0,-33.0,-22.0,-28.0,-20.0,24.0,39.0,56.0
3.0,-10.0,-12.0,-20.0,-35.0,15.0,47.0,63.0
3.0,13.0,-1.0,-45.0,5.0,21.0,43.0,37.0
4.0,25.0,4.0,-20.0,-29.0,-3.0,41.0,46.0
-1.0,-10.0,2.0,-38.0,-44.0,-14.0,19.0,3.0
-8.0,-18.0,11.0,-18.0,-53.0,-17.0,30.0,2.0
-11.0,-30.0,-6.0,12.0,-47.0,-20.0,31.0,15.0
-15.0,-24.0,-16.0,12.0,-9.0,-30.0,-2.0,13.0
-42.0,-22.0,-10.0,0.0,-4.0,-29.0,7.0,29.0
-25.0,-51.0,-12.0,-24.0,-5.0,-23.0,13.0,27.0
-4.0,-16.0,-28.0,-30.0,-28.0,13.0,6.0,49.0
-23.0,-16.0,-36.0,-67.0,-6.0,43.0,6.0,32.0
-9.0,22.0,-9.0,-51.0,-40.0,17.0,2.0,44.0
-5.0,9.0,-18.0,-23.0,-48.0,48.0,6.0,169.0
-9.0,-15.0,-27.0,-28.0,-10.0,54.0,-6.0,237.0
-23.0,-8.0,-15.0,-31.0,1.0,61.0,3.0,119.0
0.0,-12.0,-9.0,-32.0,-11.0,70.0,33.0,43.0
-1.0,-7.0,2.0,-13.0,-37.0,37.0,38.0,2.0
-6.0,-12.0,-13.0,-2.0,-22.0,66.0,34.0,-116.0
21.0,12.0,-6.0,5.0,-21.0,45.0,24.0,-87.0
6.0,30.0,20.0,12.0,-17.0,67.0,14.0,-150.0
0.0,19.0,10.0,6.0,-19.0,73.0,33.0,-466.0
-17.0,-5.0,13.0,11.0,-24.0,62.0,39.0,-252.0
-23.0,2.0,10.0,14.0,-21.0,73.0,37.0,119.0
-25.0,-4.0,-7.0,-14.0,-16.0,79.0,19.0,-34.0
-26.0,1.0,5.0,-5.0,-20.0,70.0,1.0,-24.0
-31.0,1.0,4.0,1.0,-8.0,40.0,29.0,-153.0
-29.0,24.0,-16.0,-17.0,24.0,58.0,16.0,-301.0
-14.0,20.0,-36.0,-22.0,16.0,55.0,17.0,-156.0
-34.0,-5.0,-33.0,-16.0,44.0,41.0,2.0,54.0
1.0,-16.0,7.0,-30.0,53.0,8.0,5.0,95.0
-1.0,-8.0,-6.0,-32.0,32.0,0.0,29.0,-15.0
-25.0,23.0,-18.0,-15.0,56.0,4.0,7.0,50.0
-12.0,2.0,5.0,-32.0,45.0,23.0,23.0,81.0
0.0,27.0,17.0,-11.0,75.0,61.0,32.0,132.0
25.0,29.0,27.0,7.0,93.0,72.0,50.0,97.0
-24.0,29.0,8.0,16.0,78.0,55.0,28.0,76.0
-16.0,39.0,7.0,16.0,101.0,32.0,6.0,91.0
8.0,41.0,5.0,1.0,90.0,40.0,18.0,92.0
-11.0,46.0,6.0,-10.0,102.0,32.0,25.0,58.0
-31.0,34.0,-1.0,-14.0,90.0,34.0,31.0,50.0
-32.0,25.0,-21.0,-1.0,86.0,15.0,27.0,77.0
-25.0,43.0,5.0,-10.0,91.0,59.0,40.0,66.0
-32.0,26.0,-14.0,-28.0,61.0,56.0,28.0,81.0
-34.0,7.0,-7.0,-24.0,76.0,19.0,26.0,29.0
-19.0,31.0,-1.0,-40.0,77.0,41.0,22.0,20.0
10.0,34.0,-31.0,-33.0,98.0,17.0,39.0,11.0
12.0,23.0,-1.0,-8.0,122.0,47.0,40.0,37.0
-10.0,25.0,-13.0,-39.0,130.0,40.0,20.0,41.0
-16.0,24.0,-17.0,-34.0,98.0,34.0,37.0,12.0
17.0,1.0,-5.0,-36.0,99.0,22.0,40.0,38.0
8.0,15.0,-13.0,-47.0,92.0,-7.0,35.0,15.0
1.0,10.0,6.0,-16.0,70.0,1.0,42.0,11.0
25.0,4.0,-25.0,-22.0,93.0,14.0,50.0,10.0
-6.0,-24.0,0.0,-14.0,94.0,-1.0,33.0,12.0
-1.0,-30.0,17.0,-1.0,97.0,2.0,61.0,29.0
-3.0,-3.0,-1.0,12.0,80.0,10.0,69.0,15.0
11.0,9.0,3.0,28.0,61.0,25.0,47.0,12.0
9.0,7.0,3.0,22.0,45.0,28.0,28.0,17.0
-10.0,7.0,-4.0,13.0,64.0,16.0,9.0,31.0
3.0,0.0,-9.0,8.0,71.0,14.0,15.0,95.0
-20.0,-10.0,-9.0,-13.0,39.0,-5.0,4.0,174.0
1.0,8.0,-20.0,-49.0,42.0,25.0,3.0,174.0
6.0,-5.0,-27.0,-46.0,56.0,19.0,-3.0,92.0
17.0,29.0,-36.0,-41.0,39.0,15.0,-12.0,-1.0
-9.0,-12.0,-13.0,-18.0,40.0,20.0,40.0,-87.0
-2.0,-18.0,-1.0,-13.0,32.0,4.0,13.0,-206.0
10.0,4.0,-7.0,-26.0,25.0,7.0,-5.0,-388.0
-24.0,-11.0,-12.0,-24.0,24.0,4.0,22.0,-411.0
-2.0,28.0,-3.0,-22.0,19.0,-17.0,19.0,-179.0
-12.0,6.0,5.0,-7.0,12.0,-17.0,11.0,18.0
1.0,36.0,10.0,12.0,-17.0,-19.0,3.0,63.0
-36.0,4.0,21.0,7.0,-24.0,-22.0,17.0,91.0
-48.0,-58.0,20.0,12.0,-1.0,10.0,33.0,47.0
-45.0,-48.0,15.0,-4.0,7.0,-8.0,38.0,7.0
-64.0,-51.0,4.0,-26.0,-17.0,-19.0,24.0,-27.0
-25.0,-37.0,11.0,-29.0,18.0,-37.0,28.0,-65.0
-49.0,-41.0,4.0,-17.0,-1.0,-21.0,36.0,44.0
-37.0,-38.0,5.0,0.0,-13.0,6.0,9.0,19.0
-8.0,-31.0,13.0,-1.0,-4.0,-18.0,1.0,53.0
-42.0,-22.0,10.0,12.0,-50.0,-22.0,13.0,63.0
-40.0,-13.0,3.0,-9.0,-52.0,0.0,21.0,33.0
-36.0,-19.0,-5.0,-16.0,-38.0,15.0,12.0,95.0
-14.0,-15.0,8.0,-14.0,-17.0,1.0,14.0,47.0
3.0,-1.0,-1.0,-7.0,-22.0,-16.0,24.0,90.0
-15.0,-4.0,17.0,15.0,-12.0,32.0,6.0,81.0
-14.0,0.0,30.0,16.0,-15.0,36.0,6.0,51.0
-17.0,-26.0,3.0,7.0,-34.0,9.0,15.0,50.0
-17.0,-41.0,4.0,8.0,-17.0,10.0,4.0,35.0
-16.0,-28.0,9.0,-1.0,-4.0,-6.0,21.0,44.0
-3.0,-21.0,6.0,-29.0,-11.0,24.0,24.0,18.0
-15.0,-16.0,-11.0,-31.0,9.0,8.0,33.0,25.0
-13.0,-22.0,-14.0,-21.0,22.0,-1.0,32.0,61.0
8.0,17.0,2.0,-6.0,46.0,29.0,23.0,61.0
21.0,22.0,-9.0,-13.0,79.0,27.0,21.0,49.0
17.0,37.0,-2.0,-25.0,21.0,31.0,31.0,94.0
20.0,24.0,-11.0,-28.0,15.0,61.0,10.0,74.0
16.0,10.0,8.0,-17.0,32.0,78.0,20.0,71.0
-1.0,36.0,24.0,0.0,12.0,71.0,41.0,79.0
17.0,20.0,20.0,4.0,-2.0,71.0,23.0,63.0
21.0,21.0,12.0,-12.0,-10.0,33.0,35.0,64.0
-4.0,20.0,-13.0,-15.0,18.0,18.0,38.0,41.0
12.0,33.0,-11.0,15.0,41.0,16.0,29.0,78.0
17.0,16.0,-39.0,-26.0,32.0,25.0,42.0,71.0
-21.0,18.0,2.0,-76.0,40.0,-3.0,32.0,49.0
23.0,27.0,-6.0,-67.0,27.0,-4.0,48.0,32.0
7.0,60.0,-25.0,-42.0,11.0,22.0,43.0,39.0
-7.0,37.0,4.0,-49.0,13.0,-25.0,15.0,36.0
7.0,7.0,-4.0,-44.0,-21.0,-9.0,30.0,23.0
-1.0,12.0,-11.0,-28.0,-17.0,-5.0,20.0,62.0
3.0,-15.0,-11.0,-23.0,3.0,-33.0,30.0,38.0
-32.0,-20.0,22.0,-5.0,30.0,-11.0,37.0,28.0
-9.0,-27.0,-22.0,-29.0,41.0,-4.0,32.0,20.0
-19.0,4.0,-11.0,-28.0,7.0,13.0,21.0,31.0
-20.0,0.0,-2.0,-13.0,33.0,25.0,-2.0,38.0
-8.0,10.0,-35.0,-19.0,41.0,17.0,12.0,11.0
-20.0,16.0,-17.0,-25.0,30.0,27.0,24.0,22.0
-3.0,-5.0,-31.0,-18.0,23.0,59.0,26.0,5.0
-8.0,14.0,-21.0,-28.0,-1.0,73.0,25.0,17.0
0.0,12.0,-5.0,-26.0,9.0,57.0,25.0,3.0
7.0,-1.0,-13.0,3.0,-5.0,55.0,38.0,14.0
-15.0,-10.0,-23.0,-14.0,8.0,53.0,29.0,39.0
-21.0,-10.0,-13.0,-6.0,31.0,53.0,13.0,50.0
-5.0,2.0,-21.0,-13.0,24.0,74.0,32.0,46.0
-19.0,5.0,-15.0,-29.0,23.0,75.0,36.0,17.0
-12.0,3.0,0.0,-28.0,1.0,62.0,9.0,-3.0
-2.0,18.0,-8.0,-13.0,-7.0,53.0,-7.0,-1.0
-15.0,15.0,-9.0,-14.0,16.0,61.0,8.0,-5.0
-4.0,-7.0,-16.0,-4.0,13.0,83.0,29.0,66.0
9.0,-8.0,0.0,11.0,18.0,101.0,43.0,181.0
16.0,8.0,2.0,2.0,41.0,88.0,16.0,148.0
10.0,16.0,8.0,20.0,30.0,73.0,6.0,95.0
2.0,27.0,-1.0,21.0,23.0,49.0,35.0,3.0
-9.0,21.0,-5.0,15.0,20.0,45.0,17.0,-86.0
-18.0,24.0,-2.0,16.0,23.0,56.0,29.0,-156.0
-21.0,28.0,-24.0,-30.0,42.0,49.0,20.0,-215.0
-20.0,41.0,-1.0,-4.0,-1.0,61.0,10.0,-456.0
-16.0,33.0,3.0,-6.0,21.0,64.0,28.0,-454.0
-4.0,23.0,12.0,-31.0,23.0,84.0,27.0,-10.0
-4.0,20.0,-11.0,-13.0,21.0,87.0,21.0,-35.0
-2.0,9.0,-33.0,-40.0,45.0,65.0,41.0,6.0
-12.0,9.0,1.0,-14.0,22.0,83.0,32.0,77.0
-28.0,13.0,-19.0,-9.0,12.0,67.0,9.0,20.0
-21.0,-6.0,-22.0,-24.0,11.0,51.0,28.0,92.0
1.0,-3.0,-17.0,-6.0,14.0,90.0,23.0,30.0
5.0,5.0,-19.0,3.0,18.0,51.0,29.0,70.0
-3.0,19.0,-12.0,20.0,28.0,46.0,25.0,33.0
5.0,27.0,-20.0,4.0,1.0,36.0,39.0,22.0
-9.0,-1.0,1.0,-10.0,-14.0,-2.0,39.0,38.0
-34.0,-16.0,-4.0,-24.0,4.0,14.0,32.0,17.0
-22.0,-37.0,-25.0,-31.0,5.0,15.0,25.0,32.0
-6.0,-16.0,-38.0,-39.0,52.0,13.0,24.0,47.0
-1.0,-5.0,-26.0,-26.0,37.0,10.0,16.0,50.0
-2.0,-14.0,-1.0,-45.0,35.0,-1.0,-11.0,23.0
0.0,5.0,-27.0,-26.0,60.0,-1.0,1.0,23.0
-18.0,10.0,-5.0,-11.0,63.0,23.0,12.0,-26.0
13.0,15.0,27.0,-13.0,44.0,21.0,-14.0,-3.0
13.0,6.0,10.0,-10.0,47.0,2.0,-6.0,26.0
-25.0,8.0,-17.0,-8.0,61.0,26.0,-6.0,134.0
21.0,4.0,-11.0,2.0,52.0,24.0,-2.0,235.0
5.0,-20.0,-6.0,-22.0,93.0,21.0,23.0,181.0
-15.0,-40.0,3.0,2.0,69.0,5.0,42.0,129.0
-1.0,-7.0,12.0,-17.0,44.0,-10.0,46.0,49.0
-20.0,-12.0,9.0,-11.0,69.0,-6.0,27.0,-60.0
-12.0,-24.0,-2.0,-19.0,73.0,-37.0,28.0,-123.0
8.0,5.0,2.0,-42.0,93.0,-92.0,12.0,-254.0
-1.0,1.0,28.0,-14.0,85.0,-109.0,2.0,-349.0
-3.0,5.0,-11.0,-3.0,80.0,-59.0,22.0,-88.0
-9.0,6.0,0.0,-4.0,69.0,-36.0,29.0,66.0
-27.0,15.0,-10.0,12.0,84.0,-8.0,50.0,5.0
-1.0,-4.0,-12.0,28.0,99.0,4.0,30.0,72.0
-6.0,2.0,3.0,18.0,80.0,-21.0,28.0,46.0
-37.0,12.0,-6.0,19.0,89.0,9.0,40.0,51.0
-41.0,3.0,-7.0,15.0,81.0,-14.0,19.0,69.0
-31.0,8.0,-31.0,-19.0,63.0,1.0,13.0,153.0
-6.0,-28.0,12.0,-25.0,61.0,20.0,-1.0,228.0
-21.0,-38.0,-14.0,-34.0,40.0,-1.0,34.0,138.0
-17.0,-26.0,-21.0,-11.0,36.0,-2.0,26.0,181.0
-13.0,-17.0,8.0,-21.0,32.0,-7.0,31.0,254.0
3.0,-8.0,11.0,-39.0,34.0,2.0,42.0,361.0
-8.0,1.0,0.0,-47.0,43.0,14.0,25.0,399.0
-18.0,-16.0,-14.0,-32.0,24.0,31.0,39.0,196.0
-21.0,5.0,2.0,-35.0,-10.0,48.0,19.0,-65.0
-31.0,19.0,1.0,-37.0,-20.0,48.0,0.0,-85.0
-24.0,0.0,12.0,-20.0,-14.0,43.0,16.0,-138.0
-44.0,0.0,-2.0,-44.0,-34.0,64.0,7.0,-545.0
-26.0,4.0,-21.0,-40.0,-43.0,51.0,0.0,-861.0
-26.0,0.0,-26.0,-55.0,-22.0,33.0,-17.0,-779.0
-11.0,11.0,-24.0,-46.0,-20.0,9.0,-6.0,-422.0
-5.0,28.0,-31.0,-41.0,-35.0,3.0,18.0,-37.0
-46.0,-1.0,-34.0,-50.0,-79.0,39.0,-11.0,100.0
7.0,5.0,-17.0,-28.0,-73.0,34.0,0.0,130.0
8.0,18.0,-29.0,-25.0,-40.0,19.0,13.0,208.0
5.0,4.0,-24.0,-24.0,-36.0,54.0,6.0,221.0
12.0,28.0,-1.0,-18.0,-37.0,50.0,38.0,230.0
-6.0,13.0,6.0,-4.0,-62.0,53.0,42.0,182.0
21.0,-3.0,-1.0,-12.0,-54.0,62.0,19.0,169.0
3.0,-6.0,11.0,-11.0,-47.0,64.0,50.0,161.0
-28.0,-6.0,18.0,-30.0,-37.0,72.0,39.0,148.0
-27.0,1.0,2.0,-1.0,-23.0,54.0,21.0,155.0
-16.0,3.0,-1.0,15.0,-23.0,51.0,37.0,108.0
-12.0,4.0,19.0,-7.0,-2.0,18.0,20.0,95.0
16.0,6.0,21.0,-7.0,41.0,64.0,31.0,63.0
4.0,20.0,1.0,-9.0,42.0,79.0,32.0,53.0
-1.0,15.0,15.0,-7.0,29.0,73.0,54.0,66.0
15.0,-1.0,25.0,-24.0,-3.0,74.0,30.0,74.0
7.0,9.0,40.0,-15.0,-10.0,48.0,32.0,69.0
18.0,10.0,20.0,-13.0,21.0,69.0,36.0,79.0
0.0,12.0,-17.0,-25.0,-14.0,17.0,25.0,56.0
1.0,27.0,8.0,-19.0,0.0,32.0,54.0,53.0
-5.0,3.0,3.0,-11.0,11.0,72.0,34.0,26.0
0.0,7.0,8.0,1.0,-24.0,41.0,13.0,9.0
-1.0,9.0,12.0,-13.0,2.0,24.0,19.0,28.0
-1.0,-14.0,-12.0,-18.0,17.0,13.0,43.0,12.0
-4.0,-20.0,-6.0,2.0,8.0,21.0,19.0,30.0
-9.0,-31.0,-12.0,-30.0,16.0,15.0,33.0,3.0
-2.0,0.0,9.0,-20.0,17.0,15.0,31.0,19.0
-13.0,-7.0,-6.0,-14.0,25.0,2.0,5.0,32.0
-27.0,11.0,-16.0,-36.0,26.0,16.0,8.0,40.0
-41.0,20.0,-24.0,-27.0,26.0,13.0,11.0,18.0
-16.0,-3.0,-36.0,-35.0,33.0,22.0,32.0,2.0
6.0,-2.0,-43.0,-1.0,34.0,15.0,-14.0,7.0
-4.0,-13.0,-23.0,-23.0,0.0,28.0,1.0,-27.0
-13.0,8.0,-11.0,-41.0,-6.0,31.0,25.0,-85.0
1.0,12.0,-20.0,-18.0,21.0,-1.0,32.0,-193.0
15.0,-2.0,10.0,-25.0,63.0,39.0,34.0,-82.0
-9.0,10.0,1.0,-13.0,69.0,65.0,43.0,13.0
28.0,4.0,-10.0,-5.0,56.0,21.0,54.0,-6.0
7.0,8.0,-1.0,-3.0,65.0,7.0,31.0,46.0
-29.0,28.0,-5.0,1.0,37.0,-22.0,65.0,7.0
4.0,20.0,-1.0,-4.0,33.0,-117.0,41.0,42.0
-1.0,23.0,-6.0,-8.0,40.0,-97.0,41.0,47.0
-10.0,4.0,-13.0,-8.0,10.0,-73.0,48.0,-17.0
-17.0,0.0,-13.0,-23.0,17.0,-49.0,41.0,-3.0
-11.0,24.0,-9.0,2.0,21.0,-62.0,48.0,-4.0
-11.0,15.0,-5.0,9.0,13.0,-56.0,37.0,-5.0
-23.0,-1.0,10.0,-10.0,31.0,16.0,51.0,-17.0
-40.0,2.0,-3.0,-4.0,-1.0,-11.0,44.0,-72.0
-33.0,25.0,-1.0,-13.0,6.0,-6.0,30.0,-54.0
-15.0,5.0,6.0,-2.0,9.0,-9.0,16.0,30.0
6.0,22.0,2.0,-13.0,9.0,10.0,46.0,31.0
3.0,30.0,34.0,16.0,25.0,33.0,54.0,-9.0
-31.0,24.0,39.0,9.0,20.0,14.0,20.0,-19.0
-3.0,44.0,3.0,-22.0,24.0,36.0,9.0,-14.0
-5.0,27.0,-3.0,6.0,32.0,42.0,10.0,66.0
-8.0,20.0,0.0,-16.0,46.0,22.0,28.0,67.0
-1.0,9.0,10.0,9.0,53.0,18.0,21.0,3.0
-3.0,17.0,-1.0,9.0,41.0,9.0,35.0,58.0
-3.0,9.0,5.0,-2.0,28.0,-2.0,20.0,56.0
4.0,1.0,16.0,-5.0,58.0,16.0,10.0,-17.0
9.0,21.0,10.0,3.0,41.0,37.0,27.0,6.0
10.0,28.0,1.0,11.0,55.0,33.0,23.0,-44.0
32.0,36.0,-8.0,-12.0,53.0,8.0,31.0,-3.0
15.0,34.0,0.0,-14.0,32.0,8.0,1.0,5.0
9.0,29.0,-32.0,-30.0,59.0,26.0,17.0,-4.0
9.0,8.0,6.0,-28.0,72.0,31.0,40.0,100.0
3.0,5.0,37.0,-23.0,90.0,29.0,31.0,59.0
4.0,2.0,-21.0,-14.0,71.0,24.0,25.0,75.0
7.0,-7.0,-6.0,-19.0,88.0,18.0,20.0,51.0
7.0,20.0,9.0,-5.0,88.0,24.0,26.0,-35.0
-4.0,21.0,-14.0,-8.0,68.0,12.0,5.0,41.0
1.0,10.0,-10.0,-7.0,64.0,4.0,-18.0,70.0
16.0,-16.0,-19.0,0.0,60.0,-12.0,-7.0,5.0
1.0,-29.0,-48.0,-25.0,113.0,-30.0,8.0,54.0
-23.0,-24.0,-38.0,-25.0,86.0,-20.0,17.0,3.0
-42.0,-91.0,-42.0,-64.0,97.0,-13.0,-1.0,-13.0
-52.0,-113.0,-36.0,-47.0,92.0,-21.0,12.0,-8.0
-43.0,-94.0,-27.0,-27.0,50.0,0.0,50.0,-31.0
-35.0,-46.0,-24.0,-23.0,80.0,-15.0,31.0,13.0
-6.0,-27.0,-14.0,-41.0,48.0,-33.0,27.0,7.0
-5.0,-28.0,-21.0,-51.0,46.0,-9.0,22.0,63.0
-15.0,-1.0,-22.0,-17.0,59.0,-21.0,39.0,61.0
-12.0,0.0,-16.0,-26.0,29.0,-3.0,43.0,22.0
-11.0,-4.0,-10.0,-3.0,36.0,-14.0,44.0,72.0
-27.0,10.0,-9.0,15.0,63.0,-24.0,68.0,178.0
-23.0,30.0,-1.0,7.0,63.0,8.0,43.0,197.0
7.0,29.0,-9.0,-5.0,46.0,9.0,41.0,161.0
-25.0,19.0,-5.0,-8.0,34.0,26.0,39.0,120.0
-27.0,15.0,1.0,-5.0,52.0,23.0,46.0,73.0
-17.0,23.0,9.0,5.0,58.0,30.0,46.0,23.0
9.0,45.0,6.0,-3.0,28.0,39.0,20.0,-19.0
1.0,33.0,0.0,-2.0,39.0,28.0,30.0,-75.0
-21.0,4.0,6.0,5.0,24.0,15.0,24.0,-200.0
-8.0,5.0,-5.0,-4.0,32.0,31.0,36.0,-44.0
-21.0,24.0,-1.0,-14.0,46.0,38.0,20.0,131.0
-24.0,30.0,-25.0,-11.0,-14.0,62.0,-4.0,39.0
-9.0,14.0,-9.0,3.0,-15.0,88.0,28.0,96.0
-16.0,-2.0,-13.0,-13.0,-17.0,65.0,-2.0,79.0
-20.0,-4.0,-18.0,-14.0,-36.0,94.0,4.0,89.0
-12.0,-3.0,23.0,-25.0,-34.0,102.0,34.0,246.0
-9.0,-5.0,20.0,-3.0,-18.0,89.0,37.0,275.0
16.0,6.0,17.0,-4.0,-20.0,81.0,31.0,199.0
-20.0,5.0,11.0,2.0,-30.0,76.0,19.0,145.0
-16.0,34.0,15.0,12.0,-30.0,86.0,12.0,64.0
-20.0,21.0,19.0,-10.0,-35.0,71.0,2.0,-46.0
-14.0,-19.0,14.0,0.0,-31.0,76.0,40.0,-111.0
-1.0,5.0,23.0,-27.0,-58.0,45.0,20.0,-338.0
-39.0,-19.0,-1.0,5.0,-69.0,42.0,1.0,-348.0
-1.0,1.0,-17.0,7.0,-68.0,54.0,-14.0,-34.0
-19.0,-14.0,-26.0,-21.0,-86.0,-7.0,-20.0,53.0
-29.0,-16.0,2.0,-6.0,-69.0,45.0,-10.0,39.0
-7.0,20.0,-6.0,-11.0,-49.0,86.0,-16.0,58.0
-5.0,-1.0,-21.0,-15.0,-62.0,34.0,2.0,108.0
13.0,8.0,-8.0,-44.0,-51.0,35.0,19.0,386.0
-11.0,9.0,-26.0,-56.0,-16.0,23.0,38.0,421.0
-18.0,24.0,-5.0,-42.0,-13.0,33.0,27.0,319.0
-13.0,14.0,-3.0,-51.0,7.0,67.0,13.0,314.0
-21.0,16.0,7.0,-59.0,12.0,50.0,27.0,128.0
-5.0,37.0,15.0,-50.0,21.0,65.0,20.0,-26.0
-14.0,6.0,-2.0,-55.0,47.0,76.0,25.0,-253.0
-25.0,11.0,-6.0,-31.0,39.0,58.0,30.0,-824.0
-2.0,34.0,-33.0,-10.0,42.0,50.0,32.0,-1143.0
0.0,22.0,-40.0,-7.0,25.0,49.0,25.0,-380.0
9.0,12.0,-6.0,-19.0,18.0,62.0,23.0,12.0
