-132.0,-236.0,-187.0,-233.0,-2818.0,429.0,-363.0,75.0
-140.0,-233.0,-206.0,-263.0,-2912.0,374.0,-384.0,-114.0
-156.0,-242.0,-190.0,-259.0,-2741.0,301.0,-440.0,-394.0
-181.0,-267.0,-198.0,-271.0,-2122.0,243.0,-436.0,-386.0
-155.0,-241.0,-206.0,-266.0,-1898.0,191.0,-441.0,-282.0
-171.0,-258.0,-200.0,-249.0,-2159.0,156.0,-436.0,-180.0
-166.0,-225.0,-185.0,-255.0,-2116.0,156.0,-424.0,-70.0
-136.0,-193.0,-183.0,-200.0,-2140.0,144.0,-424.0,-128.0
-175.0,-210.0,-177.0,-216.0,-1797.0,123.0,-408.0,-312.0
-165.0,-236.0,-168.0,-237.0,-1109.0,50.0,-375.0,-618.0
-128.0,-228.0,-140.0,-201.0,-730.0,-32.0,-359.0,-734.0
-107.0,-196.0,-123.0,-188.0,-261.0,-40.0,-363.0,-476.0
-112.0,-195.0,-114.0,-127.0,1.0,-9.0,-338.0,-200.0
-99.0,-165.0,-65.0,-107.0,275.0,-27.0,-325.0,-151.0
-71.0,-143.0,-54.0,-137.0,817.0,-6.0,-327.0,-59.0
-35.0,-122.0,-52.0,-96.0,880.0,4.0,-298.0,-136.0
2.0,-62.0,-44.0,-76.0,1097.0,12.0,-306.0,-723.0
15.0,-21.0,1.0,-62.0,1213.0,7.0,-287.0,-953.0
13.0,-6.0,42.0,-54.0,961.0,13.0,-255.0,-692.0
16.0,18.0,29.0,-40.0,843.0,23.0,-255.0,-455.0
30.0,37.0,31.0,-7.0,817.0,-18.0,-228.0,-168.0
21.0,57.0,31.0,7.0,1069.0,-32.0,-210.0,31.0
30.0,77.0,43.0,50.0,1059.0,-68.0,-199.0,144.0
47.0,109.0,63.0,52.0,982.0,-69.0,-196.0,190.0
17.0,112.0,83.0,71.0,811.0,-44.0,-156.0,207.0
11.0,99.0,83.0,42.0,733.0,-82.0,-133.0,474.0
32.0,114.0,74.0,52.0,575.0,-104.0,-119.0,700.0
38.0,113.0,75.0,85.0,583.0,-108.0,-108.0,751.0
47.0,121.0,72.0,61.0,641.0,-90.0,-102.0,882.0
50.0,140.0,43.0,87.0,328.0,-28.0,-80.0,941.0
52.0,152.0,50.0,60.0,454.0,155.0,-33.0,811.0
50.0,148.0,92.0,77.0,651.0,347.0,-16.0,569.0
43.0,143.0,75.0,94.0,293.0,562.0,-19.0,434.0
53.0,151.0,80.0,93.0,-356.0,831.0,33.0,261.0
39.0,157.0,105.0,116.0,55.0,1140.0,26.0,121.0
32.0,95.0,110.0,120.0,471.0,1547.0,1.0,249.0
52.0,68.0,75.0,87.0,597.0,1991.0,41.0,264.0
11.0,77.0,53.0,50.0,686.0,2425.0,48.0,391.0
14.0,62.0,66.0,24.0,344.0,2682.0,5.0,459.0
52.0,93.0,67.0,10.0,509.0,2759.0,5.0,338.0
40.0,73.0,34.0,28.0,418.0,2747.0,-6.0,304.0
25.0,40.0,9.0,2.0,314.0,2577.0,-17.0,304.0
14.0,20.0,16.0,25.0,444.0,2440.0,21.0,282.0
31.0,33.0,42.0,77.0,314.0,2189.0,23.0,281.0
17.0,87.0,68.0,51.0,706.0,1628.0,50.0,329.0
25.0,81.0,48.0,32.0,1009.0,1026.0,67.0,83.0
33.0,83.0,35.0,20.0,758.0,496.0,53.0,-32.0
31.0,87.0,30.0,0.0,635.0,67.0,73.0,71.0
44.0,111.0,50.0,-11.0,379.0,-212.0,65.0,47.0
26.0,95.0,46.0,26.0,109.0,-550.0,83.0,75.0
42.0,82.0,14.0,34.0,-96.0,-802.0,101.0,178.0
31.0,87.0,28.0,45.0,-313.0,-791.0,110.0,141.0
4.0,67.0,46.0,67.0,-299.0,-657.0,107.0,41.0
17.0,64.0,27.0,34.0,-227.0,-521.0,109.0,-55.0
9.0,68.0,40.0,31.0,7.0,-446.0,148.0,-385.0
7.0,60.0,30.0,50.0,25.0,-237.0,148.0,-366.0
-14.0,38.0,5.0,38.0,151.0,-65.0,145.0,-105.0
-17.0,-12.0,-3.0,16.0,477.0,110.0,124.0,-21.0
-4.0,21.0,-3.0,5.0,686.0,311.0,124.0,-232.0
-4.0,31.0,-2.0,6.0,917.0,365.0,145.0,-692.0
-14.0,11.0,0.0,8.0,1148.0,469.0,152.0,-862.0
-29.0,-2.0,-4.0,-13.0,1377.0,514.0,166.0,-908.0
-26.0,-13.0,-18.0,-10.0,1378.0,506.0,156.0,-953.0
-20.0,4.0,0.0,10.0,1518.0,554.0,184.0,-840.0
-15.0,-28.0,-22.0,10.0,1533.0,613.0,214.0,-653.0
-27.0,-21.0,-33.0,-5.0,1539.0,520.0,181.0,-424.0
-23.0,-11.0,-41.0,-16.0,1666.0,343.0,217.0,-524.0
-5.0,3.0,-30.0,10.0,1604.0,207.0,234.0,-427.0
1.0,4.0,-9.0,34.0,1604.0,67.0,199.0,-254.0
-20.0,-20.0,-28.0,-20.0,1579.0,133.0,197.0,-276.0
-5.0,12.0,2.0,-50.0,1518.0,284.0,166.0,34.0
8.0,7.0,-41.0,-48.0,1443.0,374.0,130.0,59.0
-9.0,-28.0,-64.0,-68.0,1604.0,311.0,104.0,-13.0
-5.0,-38.0,-26.0,-47.0,1590.0,150.0,106.0,9.0
-2.0,-39.0,-30.0,-34.0,1645.0,23.0,49.0,-99.0
-12.0,-31.0,-20.0,-49.0,1787.0,-58.0,-3.0,13.0
-18.0,-23.0,-16.0,-29.0,1547.0,1.0,41.0,122.0
-8.0,-31.0,-15.0,-20.0,1488.0,-98.0,87.0,17.0
-16.0,-38.0,-46.0,-44.0,1395.0,-212.0,64.0,-105.0
-4.0,-12.0,-37.0,-47.0,1344.0,-167.0,85.0,-175.0
-4.0,-31.0,-16.0,-57.0,1287.0,-159.0,126.0,-278.0
-10.0,-49.0,-15.0,-39.0,1325.0,-146.0,127.0,-320.0
-25.0,-32.0,7.0,-31.0,1417.0,-175.0,130.0,-165.0
-35.0,-44.0,-25.0,-39.0,1604.0,-202.0,138.0,-152.0
-47.0,-48.0,-9.0,-13.0,1574.0,-258.0,158.0,-101.0
-20.0,-43.0,-26.0,10.0,1352.0,-423.0,160.0,21.0
-10.0,-38.0,-25.0,20.0,1462.0,-362.0,152.0,-101.0
-55.0,-55.0,-33.0,-19.0,1391.0,-284.0,130.0,-102.0
-8.0,-45.0,-52.0,-12.0,1279.0,-521.0,133.0,-80.0
11.0,-22.0,-49.0,-14.0,1279.0,-722.0,92.0,-50.0
-9.0,-40.0,-25.0,-5.0,1097.0,-783.0,39.0,-13.0
-16.0,-10.0,-9.0,0.0,902.0,-816.0,5.0,38.0
-11.0,-14.0,-19.0,-17.0,870.0,-920.0,-51.0,30.0
2.0,-16.0,11.0,-9.0,692.0,-900.0,-79.0,3.0
-5.0,-24.0,-23.0,-83.0,534.0,-855.0,-118.0,82.0
-17.0,2.0,-7.0,-72.0,273.0,-802.0,-159.0,37.0
-6.0,12.0,-4.0,-54.0,41.0,-642.0,-189.0,119.0
16.0,-10.0,-36.0,-35.0,281.0,-439.0,-204.0,131.0
16.0,24.0,-21.0,-29.0,553.0,-611.0,-203.0,122.0
20.0,31.0,-29.0,-19.0,602.0,-849.0,-195.0,154.0
-14.0,56.0,-26.0,44.0,230.0,-881.0,-198.0,42.0
-29.0,25.0,0.0,54.0,-364.0,-1047.0,-204.0,-1.0
-24.0,11.0,3.0,28.0,-534.0,-1005.0,-180.0,-87.0
-13.0,15.0,0.0,-19.0,-1304.0,-1005.0,-200.0,-84.0
0.0,-27.0,15.0,-49.0,-1823.0,-1205.0,-213.0,-8.0
-5.0,-13.0,10.0,-84.0,-1499.0,-1441.0,-220.0,-52.0
-9.0,-53.0,-6.0,-63.0,-1319.0,-1518.0,-244.0,-42.0
-28.0,-53.0,-25.0,-80.0,-1137.0,-1310.0,-262.0,-61.0
-26.0,-24.0,-31.0,-96.0,-1731.0,-1100.0,-294.0,-81.0
-29.0,-24.0,-41.0,-83.0,-1918.0,-972.0,-310.0,-85.0
-18.0,1.0,-39.0,-56.0,-1814.0,-485.0,-337.0,-102.0
-15.0,9.0,-13.0,-6.0,-2187.0,133.0,-333.0,-77.0
-3.0,-2.0,-26.0,-29.0,-2238.0,374.0,-338.0,-98.0
-32.0,-39.0,-13.0,6.0,-2316.0,152.0,-325.0,-83.0
-34.0,14.0,15.0,26.0,-2369.0,-94.0,-294.0,-61.0
21.0,48.0,7.0,40.0,-2611.0,-149.0,-306.0,-82.0
-8.0,40.0,-1.0,51.0,-2548.0,-262.0,-268.0,-96.0
-8.0,37.0,7.0,21.0,-2277.0,-398.0,-227.0,-111.0
5.0,8.0,9.0,35.0,-2122.0,-440.0,-196.0,-121.0
-6.0,16.0,7.0,30.0,-1849.0,-344.0,-176.0,-125.0
2.0,38.0,19.0,0.0,-1918.0,-106.0,-176.0,-141.0
4.0,28.0,-2.0,19.0,-2081.0,113.0,-105.0,-148.0
9.0,9.0,5.0,28.0,-2044.0,37.0,-82.0,-138.0
0.0,-5.0,18.0,5.0,-2181.0,-114.0,-80.0,-137.0
-13.0,6.0,7.0,15.0,-2466.0,-182.0,-27.0,-137.0
4.0,23.0,11.0,-20.0,-2598.0,-66.0,-44.0,-147.0
20.0,28.0,-5.0,-44.0,-2794.0,21.0,-72.0,-129.0
-18.0,30.0,-25.0,-48.0,-2577.0,-136.0,-67.0,-137.0
-4.0,13.0,-10.0,-40.0,-2676.0,-210.0,-73.0,-145.0
5.0,5.0,4.0,-29.0,-3521.0,-240.0,-43.0,-124.0
-24.0,0.0,5.0,-25.0,-3521.0,-279.0,-21.0,-145.0
2.0,19.0,1.0,7.0,-3628.0,-212.0,31.0,-126.0
5.0,31.0,40.0,64.0,-3856.0,22.0,76.0,-101.0
8.0,9.0,37.0,54.0,-2818.0,256.0,59.0,-109.0
3.0,10.0,2.0,36.0,-1381.0,360.0,86.0,-113.0
-3.0,17.0,14.0,30.0,-490.0,339.0,114.0,-117.0
3.0,-1.0,-4.0,20.0,110.0,303.0,116.0,-117.0
-24.0,0.0,22.0,39.0,680.0,393.0,133.0,-109.0
-14.0,4.0,6.0,-3.0,1114.0,701.0,140.0,-101.0
-14.0,-13.0,-28.0,-28.0,1482.0,988.0,133.0,-97.0
-23.0,-3.0,7.0,-34.0,1287.0,1214.0,147.0,-93.0
-22.0,-6.0,-12.0,-60.0,1032.0,1409.0,165.0,-109.0
-18.0,-18.0,-11.0,-73.0,967.0,1322.0,183.0,-91.0
-19.0,-21.0,6.0,-53.0,1474.0,1258.0,184.0,-86.0
-41.0,-14.0,-21.0,-34.0,2357.0,1378.0,214.0,-91.0
-17.0,-7.0,-14.0,-66.0,2646.0,1591.0,213.0,-75.0
-31.0,-10.0,-9.0,-103.0,2439.0,1531.0,209.0,-40.0
-3.0,8.0,-1.0,-96.0,2224.0,1279.0,242.0,-21.0
-12.0,15.0,-2.0,-74.0,2711.0,1098.0,213.0,-24.0
-33.0,16.0,-28.0,-48.0,2630.0,941.0,203.0,1.0
1.0,-10.0,-29.0,-42.0,3037.0,856.0,209.0,9.0
1.0,-11.0,2.0,-41.0,4000.0,725.0,201.0,5.0
7.0,-10.0,20.0,15.0,4000.0,648.0,168.0,-11.0
11.0,-10.0,44.0,13.0,4000.0,603.0,135.0,-17.0
-4.0,-3.0,62.0,4.0,4000.0,522.0,127.0,-14.0
-20.0,-11.0,24.0,1.0,4000.0,463.0,120.0,-2.0
9.0,30.0,24.0,-15.0,4000.0,486.0,131.0,37.0
3.0,34.0,50.0,14.0,4000.0,441.0,107.0,9.0
2.0,37.0,62.0,40.0,4000.0,272.0,76.0,1.0
-8.0,22.0,72.0,36.0,4000.0,51.0,73.0,29.0
15.0,24.0,43.0,51.0,4000.0,-182.0,56.0,22.0
20.0,33.0,15.0,50.0,4000.0,-338.0,27.0,33.0
-1.0,19.0,-16.0,30.0,4000.0,-428.0,12.0,10.0
-8.0,17.0,0.0,45.0,4000.0,-472.0,16.0,21.0
-9.0,24.0,8.0,-5.0,4000.0,-448.0,4.0,20.0
-17.0,20.0,-27.0,-56.0,4000.0,-533.0,-25.0,27.0
-36.0,24.0,-22.0,-72.0,4000.0,-721.0,-12.0,46.0
-12.0,13.0,-51.0,-86.0,4000.0,-676.0,-4.0,1.0
-44.0,2.0,-89.0,-95.0,4000.0,-548.0,8.0,10.0
-46.0,-4.0,-50.0,-106.0,4000.0,-362.0,-20.0,-8.0
-37.0,-32.0,-41.0,-127.0,4000.0,-320.0,-20.0,-17.0
-33.0,29.0,-24.0,-61.0,4000.0,-358.0,-10.0,-18.0
-8.0,15.0,18.0,-40.0,4000.0,-289.0,-61.0,-19.0
-20.0,11.0,-6.0,-49.0,1733.0,-464.0,-33.0,-12.0
-32.0,9.0,2.0,-34.0,-1768.0,-555.0,-9.0,-35.0
-18.0,-26.0,-18.0,-18.0,-3213.0,-468.0,-17.0,-6.0
-5.0,-36.0,-20.0,10.0,-4000.0,-511.0,-39.0,9.0
-10.0,-35.0,2.0,5.0,-4000.0,-485.0,-17.0,-23.0
-34.0,-44.0,-10.0,-1.0,-4000.0,-456.0,0.0,3.0
-55.0,-47.0,-14.0,-4.0,-4000.0,-459.0,-2.0,39.0
-33.0,-12.0,-47.0,3.0,-4000.0,-472.0,34.0,22.0
-28.0,-46.0,-37.0,-12.0,-4000.0,-555.0,45.0,60.0
-25.0,-30.0,-32.0,2.0,-4000.0,-643.0,53.0,68.0
-28.0,1.0,-24.0,-10.0,-4000.0,-705.0,66.0,53.0
-21.0,-28.0,-42.0,-17.0,-4000.0,-737.0,69.0,36.0
4.0,-26.0,-32.0,35.0,-4000.0,-707.0,78.0,60.0
-1.0,-28.0,19.0,47.0,-4000.0,-665.0,104.0,78.0
-25.0,-44.0,-17.0,22.0,-4000.0,-737.0,90.0,69.0
-37.0,-35.0,-45.0,-18.0,-4000.0,-846.0,84.0,69.0
-30.0,-21.0,-39.0,-54.0,-4000.0,-797.0,83.0,31.0
-49.0,-4.0,-33.0,-114.0,-4000.0,-716.0,102.0,42.0
-43.0,6.0,-90.0,-173.0,-4000.0,-710.0,96.0,59.0
-1.0,14.0,-110.0,-149.0,-4000.0,-645.0,96.0,50.0
-31.0,-5.0,-85.0,-98.0,-4000.0,-729.0,116.0,40.0
-10.0,-7.0,-53.0,-5.0,-4000.0,-859.0,105.0,79.0
30.0,27.0,14.0,35.0,-4000.0,-946.0,107.0,76.0
0.0,43.0,31.0,-14.0,-4000.0,-1096.0,90.0,69.0
15.0,49.0,60.0,16.0,-4000.0,-1122.0,116.0,81.0
-5.0,43.0,51.0,51.0,-4000.0,-1135.0,106.0,76.0
9.0,30.0,67.0,75.0,-4000.0,-1032.0,99.0,91.0
34.0,14.0,65.0,98.0,-4000.0,-881.0,112.0,105.0
-18.0,-4.0,44.0,88.0,-4000.0,-737.0,81.0,109.0
-5.0,12.0,63.0,81.0,-3001.0,-537.0,88.0,111.0
-5.0,16.0,38.0,65.0,-2224.0,-401.0,119.0,111.0
1.0,17.0,4.0,6.0,-1795.0,-346.0,119.0,103.0
9.0,31.0,6.0,-85.0,-1528.0,-266.0,104.0,108.0
21.0,6.0,-38.0,-188.0,-1398.0,-206.0,113.0,90.0
16.0,7.0,-87.0,-171.0,-1202.0,-199.0,130.0,78.0
13.0,25.0,-43.0,-90.0,-1253.0,-167.0,159.0,71.0
37.0,32.0,-7.0,-69.0,-1072.0,-97.0,145.0,62.0
56.0,31.0,37.0,-5.0,-840.0,84.0,155.0,58.0
43.0,0.0,45.0,1.0,-441.0,256.0,161.0,17.0
20.0,21.0,41.0,34.0,-136.0,327.0,141.0,22.0
39.0,38.0,24.0,33.0,-37.0,358.0,179.0,29.0
2.0,34.0,7.0,2.0,-179.0,433.0,116.0,15.0
-1.0,44.0,37.0,-4.0,-324.0,506.0,84.0,21.0
2.0,31.0,28.0,-46.0,-314.0,506.0,95.0,26.0
-6.0,19.0,2.0,-52.0,-341.0,463.0,113.0,11.0
21.0,43.0,-16.0,-49.0,247.0,538.0,126.0,9.0
6.0,19.0,-7.0,-18.0,1032.0,713.0,124.0,36.0
-4.0,-23.0,-12.0,22.0,1340.0,722.0,98.0,3.0
-14.0,22.0,-17.0,50.0,1395.0,636.0,60.0,-4.0
-5.0,34.0,-2.0,85.0,1397.0,596.0,78.0,2.0
-1.0,7.0,0.0,84.0,1592.0,528.0,43.0,-25.0
-13.0,14.0,-12.0,63.0,1657.0,536.0,10.0,-33.0
-5.0,28.0,-36.0,37.0,1189.0,491.0,-28.0,-18.0
0.0,12.0,-24.0,49.0,1213.0,376.0,-94.0,-13.0
15.0,-1.0,-15.0,47.0,1645.0,449.0,-101.0,6.0
11.0,7.0,-17.0,23.0,2036.0,488.0,-123.0,-2.0
-13.0,-3.0,-21.0,-9.0,2383.0,415.0,-180.0,-26.0
-16.0,0.0,-9.0,-52.0,2443.0,401.0,-154.0,-35.0
-4.0,12.0,-9.0,-77.0,3346.0,457.0,-149.0,-26.0
8.0,9.0,-17.0,-72.0,3916.0,506.0,-118.0,-9.0
1.0,24.0,-9.0,-66.0,3810.0,480.0,-65.0,-22.0
-17.0,12.0,6.0,-50.0,4000.0,601.0,-58.0,-5.0
-7.0,17.0,10.0,-16.0,4000.0,822.0,0.0,-1.0
-1.0,-5.0,-16.0,29.0,4000.0,766.0,30.0,19.0
-8.0,-18.0,10.0,68.0,4000.0,660.0,50.0,34.0
-18.0,5.0,20.0,77.0,4000.0,636.0,84.0,-3.0
-13.0,-13.0,-1.0,77.0,4000.0,576.0,89.0,40.0
-21.0,-8.0,-7.0,47.0,4000.0,586.0,98.0,53.0
-49.0,-4.0,-27.0,22.0,4000.0,597.0,90.0,50.0
-19.0,7.0,-39.0,-9.0,4000.0,641.0,95.0,23.0
-30.0,16.0,-60.0,-48.0,4000.0,706.0,75.0,-2.0
-42.0,-13.0,-66.0,-37.0,4000.0,712.0,45.0,2.0
-41.0,1.0,-50.0,-38.0,4000.0,750.0,47.0,6.0
-48.0,-22.0,-22.0,-72.0,3884.0,746.0,36.0,44.0
-12.0,-33.0,-25.0,-76.0,3293.0,701.0,62.0,18.0
-28.0,-27.0,-48.0,-83.0,2907.0,684.0,142.0,44.0
-19.0,-34.0,-31.0,-97.0,3037.0,758.0,267.0,6.0
-20.0,-20.0,-48.0,-96.0,2943.0,766.0,349.0,-23.0
-33.0,-8.0,-46.0,-87.0,2772.0,749.0,274.0,42.0
-4.0,11.0,-13.0,-78.0,2630.0,738.0,144.0,64.0
-3.0,21.0,-38.0,-36.0,2513.0,803.0,-1.0,61.0
6.0,12.0,-16.0,13.0,2581.0,921.0,-159.0,64.0
2.0,11.0,-9.0,-1.0,2745.0,1071.0,-363.0,92.0
-8.0,13.0,9.0,22.0,2955.0,1292.0,-613.0,40.0
5.0,-4.0,16.0,-18.0,3020.0,1482.0,-923.0,37.0
-8.0,-7.0,3.0,-34.0,2825.0,1669.0,-1308.0,66.0
-3.0,2.0,19.0,19.0,2578.0,1917.0,-1648.0,49.0
3.0,14.0,27.0,-8.0,2360.0,2189.0,-1878.0,40.0
-13.0,11.0,33.0,-14.0,2085.0,2512.0,-1943.0,21.0
-8.0,-5.0,25.0,-22.0,1657.0,2744.0,-2107.0,23.0
-16.0,2.0,18.0,-28.0,1026.0,2888.0,-2367.0,-18.0
-23.0,-8.0,-5.0,-33.0,641.0,3083.0,-2506.0,-30.0
-16.0,-14.0,-8.0,-8.0,748.0,3215.0,-2549.0,-28.0
-11.0,-13.0,-17.0,2.0,686.0,3215.0,-2603.0,-93.0
-16.0,-16.0,-5.0,-12.0,888.0,3148.0,-2886.0,-56.0
-39.0,-28.0,-21.0,7.0,1222.0,2840.0,-3572.0,25.0
-16.0,-15.0,-2.0,-2.0,967.0,2428.0,-4000.0,51.0
-24.0,-13.0,17.0,-9.0,751.0,2047.0,-4000.0,44.0
-27.0,-16.0,-17.0,13.0,692.0,1601.0,-1991.0,-75.0
-5.0,9.0,16.0,-4.0,672.0,1201.0,767.0,-240.0
-16.0,-10.0,2.0,15.0,513.0,809.0,3535.0,-191.0
2.0,13.0,15.0,5.0,266.0,477.0,4000.0,25.0
-2.0,28.0,-8.0,-15.0,-343.0,144.0,4000.0,276.0
9.0,11.0,-10.0,22.0,-1202.0,-159.0,4000.0,448.0
1.0,0.0,-10.0,-2.0,-1737.0,-417.0,4000.0,409.0
-32.0,-14.0,-21.0,-16.0,-2183.0,-729.0,4000.0,312.0
-2.0,-14.0,0.0,-33.0,-2531.0,-971.0,3298.0,187.0
17.0,0.0,-5.0,-22.0,-2859.0,-1290.0,3860.0,30.0
-10.0,-7.0,15.0,-25.0,-3378.0,-1664.0,3596.0,46.0
-14.0,-11.0,5.0,-51.0,-3604.0,-1975.0,2321.0,36.0
12.0,8.0,21.0,-42.0,-3391.0,-2397.0,1293.0,-93.0
4.0,-10.0,-12.0,-54.0,-3107.0,-2774.0,2.0,-86.0
-2.0,7.0,3.0,-10.0,-3262.0,-3014.0,1010.0,-51.0
-25.0,1.0,20.0,-19.0,-3753.0,-3209.0,3397.0,-8.0
-20.0,-5.0,-2.0,-42.0,-4000.0,-3323.0,4000.0,135.0
10.0,-19.0,26.0,-17.0,-4000.0,-3376.0,4000.0,517.0
0.0,-27.0,-3.0,-8.0,-4000.0,-3374.0,4000.0,853.0
-8.0,9.0,8.0,12.0,-4000.0,-3246.0,4000.0,1057.0
-4.0,9.0,12.0,4.0,-4000.0,-2998.0,4000.0,1000.0
1.0,16.0,23.0,5.0,-4000.0,-2660.0,3885.0,615.0
-1.0,20.0,1.0,-8.0,-4000.0,-2287.0,1135.0,765.0
12.0,22.0,9.0,16.0,-4000.0,-2053.0,-1587.0,816.0
24.0,17.0,29.0,13.0,-4000.0,-1876.0,-3472.0,634.0
4.0,12.0,6.0,-18.0,-4000.0,-1698.0,-4000.0,1000.0
-6.0,5.0,7.0,-54.0,-4000.0,-1532.0,-4000.0,1286.0
-3.0,-21.0,-4.0,-76.0,-3132.0,-1396.0,-3432.0,1201.0
-17.0,-1.0,5.0,-36.0,-3132.0,-1263.0,-3700.0,1263.0
-23.0,-4.0,-14.0,-57.0,-4000.0,-1161.0,-4000.0,1150.0
-13.0,-26.0,-30.0,-55.0,-4000.0,-1042.0,-4000.0,941.0
-15.0,-28.0,-53.0,-60.0,-4000.0,-912.0,-4000.0,919.0
-8.0,-5.0,-28.0,-62.0,-4000.0,-873.0,-3916.0,947.0
2.0,5.0,-4.0,-23.0,-556.0,-816.0,-3572.0,1064.0
-25.0,-22.0,-9.0,-41.0,2567.0,-750.0,-3273.0,1216.0
-13.0,-5.0,-2.0,-12.0,1018.0,-781.0,-3662.0,1859.0
3.0,4.0,-15.0,-20.0,-291.0,-676.0,-4000.0,2612.0
-30.0,2.0,-11.0,-6.0,375.0,-555.0,-4000.0,3144.0
-25.0,19.0,-28.0,15.0,1918.0,-511.0,-3574.0,3723.0
9.0,13.0,-10.0,34.0,4000.0,-419.0,-2886.0,3943.0
4.0,11.0,10.0,41.0,4000.0,-313.0,-2276.0,4000.0
-11.0,11.0,-5.0,11.0,4000.0,-167.0,-2028.0,3654.0
1.0,14.0,-4.0,-1.0,4000.0,-39.0,-1851.0,1715.0
6.0,60.0,6.0,-6.0,4000.0,197.0,-1671.0,369.0
0.0,50.0,2.0,22.0,4000.0,348.0,-1813.0,-452.0
10.0,26.0,-24.0,15.0,4000.0,439.0,-1753.0,-1148.0
12.0,27.0,2.0,-9.0,4000.0,528.0,-1488.0,-1339.0
14.0,24.0,12.0,-10.0,4000.0,586.0,-1228.0,-1339.0
0.0,13.0,-14.0,-18.0,4000.0,693.0,-743.0,-1469.0
13.0,30.0,1.0,-19.0,4000.0,693.0,-267.0,-1723.0
17.0,28.0,-28.0,-9.0,4000.0,693.0,-113.0,-1856.0
-4.0,-3.0,-28.0,-9.0,4000.0,701.0,-83.0,-2121.0
-15.0,7.0,-5.0,13.0,4000.0,701.0,-274.0,-2409.0
-11.0,9.0,-37.0,23.0,4000.0,674.0,-310.0,-2812.0
2.0,22.0,-30.0,-3.0,4000.0,620.0,-224.0,-3667.0
-19.0,14.0,-20.0,-16.0,4000.0,541.0,-171.0,-4000.0
-7.0,5.0,-50.0,-29.0,3476.0,433.0,87.0,-4000.0
-15.0,11.0,-52.0,-24.0,1340.0,488.0,197.0,-4000.0
-23.0,5.0,-10.0,-22.0,-1378.0,461.0,341.0,-4000.0
-20.0,-7.0,-11.0,-32.0,-3767.0,319.0,464.0,-3634.0
-20.0,-5.0,10.0,-49.0,-4000.0,207.0,598.0,-3191.0
-28.0,-2.0,-1.0,-44.0,-4000.0,100.0,637.0,-2797.0
-41.0,-16.0,-8.0,-36.0,-4000.0,12.0,302.0,-2629.0
-17.0,-5.0,17.0,-48.0,-4000.0,-75.0,8.0,-2537.0
-20.0,-18.0,1.0,-71.0,-4000.0,-98.0,-75.0,-2375.0
-22.0,-3.0,-3.0,-74.0,-4000.0,-134.0,-73.0,-2062.0
-25.0,3.0,-5.0,-61.0,-2147.0,-279.0,148.0,-1534.0
-34.0,-6.0,2.0,-57.0,-1207.0,-405.0,543.0,-1043.0
-11.0,9.0,-10.0,-60.0,-1007.0,-464.0,669.0,-453.0
-6.0,3.0,7.0,-63.0,-738.0,-537.0,394.0,-15.0
-15.0,-2.0,3.0,-54.0,-677.0,-541.0,164.0,174.0
-40.0,-13.0,-1.0,-45.0,-902.0,-576.0,53.0,159.0
-41.0,4.0,14.0,-38.0,-2421.0,-600.0,20.0,-101.0
-3.0,1.0,-7.0,-38.0,-4000.0,-600.0,390.0,-386.0
1.0,-25.0,-10.0,-4.0,-4000.0,-565.0,628.0,-222.0
-19.0,-23.0,-13.0,-8.0,-4000.0,-489.0,930.0,438.0
7.0,-18.0,5.0,-21.0,-4000.0,-514.0,1149.0,947.0
12.0,-19.0,10.0,-25.0,-4000.0,-507.0,1060.0,1071.0
-1.0,-8.0,18.0,-39.0,-4000.0,-485.0,1073.0,935.0
15.0,-28.0,24.0,-24.0,-4000.0,-476.0,684.0,662.0
-12.0,-35.0,-6.0,-13.0,-4000.0,-449.0,217.0,629.0
-4.0,-10.0,1.0,4.0,-4000.0,-423.0,-120.0,1077.0
11.0,-12.0,1.0,-16.0,-4000.0,-403.0,-350.0,2118.0
-4.0,-14.0,6.0,-47.0,-4000.0,-398.0,-260.0,3487.0
6.0,17.0,0.0,-10.0,-4000.0,-358.0,-224.0,4000.0
-24.0,29.0,2.0,35.0,-4000.0,-354.0,-238.0,4000.0
-10.0,20.0,16.0,61.0,-3663.0,-338.0,309.0,3910.0
13.0,13.0,9.0,81.0,-3148.0,-206.0,802.0,2835.0
-8.0,7.0,28.0,113.0,-2598.0,-85.0,398.0,1307.0
-10.0,48.0,8.0,129.0,-2806.0,24.0,-46.0,-181.0
5.0,40.0,19.0,95.0,-2247.0,141.0,-331.0,-1442.0
7.0,24.0,19.0,80.0,-1998.0,225.0,-533.0,-2983.0
-1.0,40.0,2.0,75.0,-2044.0,260.0,-334.0,-4000.0
-9.0,30.0,21.0,64.0,-2356.0,331.0,-18.0,-4000.0
-4.0,20.0,12.0,22.0,-2676.0,374.0,44.0,-4000.0
4.0,7.0,1.0,-6.0,-2472.0,414.0,42.0,-4000.0
-4.0,7.0,-18.0,-21.0,-2513.0,477.0,48.0,-4000.0
3.0,20.0,-11.0,-41.0,-2860.0,494.0,-216.0,-4000.0
-14.0,22.0,-21.0,-78.0,-3327.0,557.0,-284.0,-4000.0
-31.0,-12.0,-20.0,-87.0,-3754.0,620.0,-133.0,-1298.0
-14.0,-7.0,-31.0,-88.0,-4000.0,596.0,-333.0,2562.0
-12.0,-4.0,-29.0,-98.0,-4000.0,548.0,-867.0,4000.0
-23.0,9.0,1.0,-63.0,-4000.0,463.0,-1374.0,4000.0
-23.0,28.0,-6.0,-34.0,-4000.0,368.0,-1197.0,4000.0
-12.0,6.0,14.0,26.0,-4000.0,284.0,-587.0,4000.0
-2.0,30.0,11.0,18.0,-4000.0,210.0,205.0,4000.0
-6.0,33.0,10.0,13.0,-4000.0,150.0,968.0,1914.0
18.0,30.0,16.0,39.0,-4000.0,113.0,1092.0,221.0
8.0,9.0,5.0,5.0,-4000.0,176.0,883.0,-517.0
-13.0,17.0,3.0,31.0,-3327.0,213.0,921.0,-1245.0
-6.0,43.0,-29.0,4.0,-1442.0,233.0,1248.0,-2253.0
-2.0,10.0,-28.0,-28.0,199.0,235.0,1271.0,-2577.0
-12.0,-18.0,-21.0,-25.0,1213.0,191.0,1280.0,-2324.0
-32.0,-38.0,-29.0,-41.0,1930.0,102.0,1288.0,-2231.0
-37.0,-17.0,-23.0,-44.0,2776.0,-74.0,968.0,-1738.0
-23.0,-18.0,-19.0,-37.0,3722.0,-240.0,1399.0,-1469.0
-25.0,4.0,-6.0,-25.0,4000.0,-391.0,2232.0,-1469.0
-8.0,7.0,-11.0,-30.0,4000.0,-510.0,2712.0,-1387.0
7.0,7.0,3.0,-40.0,4000.0,-565.0,2712.0,-1377.0
-22.0,0.0,-6.0,-44.0,3916.0,-555.0,2579.0,-1105.0
-31.0,-26.0,-7.0,-20.0,2711.0,-459.0,2814.0,-1070.0
-50.0,-4.0,3.0,-18.0,1907.0,-221.0,2256.0,-953.0
-42.0,-22.0,-18.0,-25.0,994.0,31.0,1353.0,-614.0
-35.0,-3.0,-36.0,-19.0,-2094.0,148.0,1418.0,-362.0
-21.0,-7.0,-11.0,-27.0,-4000.0,259.0,1788.0,-170.0
-9.0,-1.0,2.0,-15.0,-4000.0,431.0,1919.0,-14.0
-33.0,-8.0,-24.0,-35.0,-4000.0,732.0,1410.0,144.0
-24.0,-14.0,-29.0,-19.0,-4000.0,1098.0,455.0,266.0
-32.0,16.0,-26.0,12.0,-4000.0,1222.0,-210.0,230.0
-32.0,1.0,-34.0,-33.0,-4000.0,1148.0,-530.0,117.0
-1.0,7.0,-33.0,-29.0,-4000.0,938.0,-640.0,68.0
-20.0,7.0,-22.0,-29.0,-4000.0,725.0,-45.0,24.0
-19.0,-20.0,-11.0,-16.0,-3639.0,557.0,607.0,82.0
-44.0,-26.0,-16.0,-22.0,-3327.0,441.0,427.0,31.0
-59.0,-15.0,-17.0,-28.0,-2472.0,471.0,-359.0,-136.0
-31.0,-15.0,-6.0,6.0,-2122.0,354.0,-891.0,-153.0
-4.0,-1.0,-17.0,-14.0,-3343.0,107.0,-424.0,-130.0
2.0,8.0,-17.0,6.0,-4000.0,69.0,-394.0,-280.0
8.0,-11.0,-8.0,3.0,-4000.0,217.0,-646.0,-447.0
4.0,2.0,18.0,-4.0,-4000.0,441.0,-188.0,-442.0
-1.0,-10.0,3.0,-8.0,-4000.0,749.0,101.0,-431.0
3.0,-7.0,-22.0,-8.0,-4000.0,1075.0,171.0,-417.0
-8.0,-10.0,-23.0,-9.0,-4000.0,1148.0,315.0,-370.0
0.0,6.0,-5.0,-12.0,4000.0,758.0,191.0,-301.0
21.0,22.0,14.0,2.0,4000.0,243.0,265.0,-130.0
14.0,-4.0,-4.0,-2.0,4000.0,-43.0,550.0,43.0
4.0,16.0,-11.0,-17.0,4000.0,-74.0,942.0,213.0
-2.0,30.0,-5.0,-21.0,4000.0,376.0,1801.0,341.0
11.0,57.0,14.0,3.0,4000.0,1388.0,2190.0,434.0
48.0,62.0,17.0,8.0,4000.0,1872.0,2232.0,544.0
12.0,38.0,34.0,-10.0,4000.0,1482.0,2579.0,745.0
36.0,52.0,42.0,5.0,4000.0,953.0,3021.0,992.0
38.0,42.0,40.0,-9.0,4000.0,348.0,2631.0,1142.0
36.0,55.0,74.0,-5.0,4000.0,-162.0,1072.0,1281.0
44.0,60.0,45.0,-4.0,4000.0,-442.0,-907.0,1450.0
13.0,20.0,15.0,-17.0,4000.0,-137.0,-2418.0,1598.0
47.0,31.0,32.0,0.0,4000.0,94.0,-2610.0,1727.0
32.0,44.0,43.0,-10.0,4000.0,13.0,-2343.0,1850.0
7.0,19.0,33.0,7.0,4000.0,174.0,-2418.0,1989.0
-17.0,21.0,34.0,-7.0,4000.0,106.0,-2799.0,2054.0
-8.0,0.0,8.0,-11.0,4000.0,166.0,-2571.0,2249.0
-8.0,-16.0,-17.0,-18.0,4000.0,159.0,-1783.0,2415.0
-17.0,0.0,-25.0,-61.0,4000.0,1.0,-1749.0,2419.0
-14.0,-24.0,-36.0,-44.0,4000.0,-15.0,-1822.0,2302.0
-30.0,-29.0,-40.0,-33.0,4000.0,-7.0,-2186.0,2184.0
-33.0,-20.0,-37.0,-49.0,4000.0,-108.0,-2930.0,2290.0
-37.0,-38.0,-29.0,-49.0,4000.0,-224.0,-3520.0,2371.0
-43.0,-46.0,-31.0,-49.0,4000.0,-352.0,-3867.0,2437.0
-50.0,-41.0,-34.0,-31.0,713.0,-575.0,-3603.0,2313.0
-23.0,-35.0,-35.0,-17.0,-3119.0,-537.0,-2108.0,2042.0
-23.0,-21.0,-41.0,-12.0,-4000.0,-517.0,-382.0,1924.0
-44.0,-19.0,-29.0,-27.0,-4000.0,-620.0,-74.0,1924.0
-45.0,-26.0,-34.0,-32.0,-4000.0,-678.0,-917.0,1818.0
-45.0,-25.0,-21.0,-26.0,-4000.0,-582.0,-1962.0,1728.0
-33.0,-40.0,-18.0,-80.0,-4000.0,-615.0,-2043.0,1598.0
-32.0,-46.0,-63.0,-74.0,-4000.0,-722.0,-2115.0,1399.0
-32.0,-30.0,-49.0,-53.0,-4000.0,-435.0,-2302.0,1142.0
-25.0,-23.0,-41.0,-61.0,-4000.0,-375.0,-1962.0,890.0
-5.0,-37.0,-31.0,-36.0,-4000.0,-394.0,-1432.0,686.0
-18.0,-11.0,-36.0,-62.0,-4000.0,-269.0,-534.0,462.0
-10.0,-31.0,-38.0,-56.0,-4000.0,-226.0,218.0,247.0
6.0,-11.0,-15.0,-48.0,-4000.0,-362.0,930.0,41.0
4.0,21.0,-38.0,-26.0,-4000.0,-541.0,1670.0,-129.0
-8.0,-22.0,-41.0,-39.0,-4000.0,-442.0,1825.0,-188.0
11.0,-13.0,-34.0,-26.0,-4000.0,-581.0,1528.0,-142.0
0.0,-21.0,-39.0,-13.0,-3950.0,-1050.0,1288.0,-5.0
-11.0,-13.0,-50.0,-37.0,367.0,-1092.0,1060.0,131.0
-10.0,5.0,-18.0,-9.0,4000.0,-940.0,954.0,124.0
-9.0,-16.0,-13.0,0.0,4000.0,-1093.0,1329.0,53.0
-1.0,-20.0,-24.0,19.0,4000.0,-845.0,2114.0,-51.0
-33.0,-10.0,-15.0,42.0,4000.0,-149.0,2684.0,-83.0
-8.0,20.0,-21.0,34.0,4000.0,329.0,2777.0,25.0
-3.0,24.0,2.0,20.0,4000.0,476.0,2426.0,148.0
-10.0,50.0,14.0,34.0,4000.0,498.0,1540.0,184.0
0.0,64.0,21.0,20.0,4000.0,384.0,791.0,75.0
1.0,53.0,38.0,50.0,4000.0,406.0,795.0,-11.0
6.0,81.0,34.0,32.0,4000.0,520.0,1972.0,-189.0
-18.0,52.0,42.0,22.0,4000.0,748.0,3103.0,-348.0
-10.0,50.0,33.0,34.0,4000.0,858.0,3298.0,-467.0
17.0,68.0,31.0,22.0,4000.0,831.0,2708.0,-605.0
24.0,36.0,32.0,22.0,4000.0,947.0,1670.0,-614.0
28.0,55.0,21.0,4.0,2354.0,554.0,1098.0,-664.0
27.0,51.0,28.0,5.0,1329.0,-297.0,720.0,-710.0
8.0,55.0,0.0,-30.0,933.0,-1135.0,203.0,-696.0
-2.0,22.0,-1.0,-29.0,1733.0,-1056.0,-359.0,-588.0
7.0,1.0,34.0,-30.0,2556.0,-338.0,-796.0,-480.0
-7.0,33.0,17.0,-36.0,2376.0,210.0,-998.0,-464.0
-1.0,10.0,4.0,-29.0,1627.0,701.0,-1249.0,-492.0
13.0,26.0,6.0,-51.0,1018.0,998.0,-1625.0,-608.0
18.0,4.0,-1.0,-64.0,420.0,1198.0,-2094.0,-723.0
9.0,-11.0,-10.0,-65.0,-860.0,1075.0,-2276.0,-843.0
-4.0,26.0,-1.0,-44.0,-2173.0,896.0,-2223.0,-940.0
-10.0,16.0,-1.0,-28.0,-3883.0,725.0,-2139.0,-1055.0
9.0,30.0,15.0,-28.0,-4000.0,445.0,-1991.0,-1200.0
7.0,22.0,15.0,-34.0,-4000.0,189.0,-1918.0,-1339.0
-16.0,-22.0,10.0,-22.0,-4000.0,-216.0,-1819.0,-1439.0
-23.0,-12.0,18.0,-12.0,-4000.0,-794.0,-1651.0,-1469.0
-40.0,-3.0,-2.0,-12.0,-4000.0,-1290.0,-1462.0,-1469.0
-41.0,-10.0,-10.0,-26.0,-4000.0,-1518.0,-1360.0,-1497.0
-29.0,-19.0,-13.0,-15.0,-4000.0,-1311.0,-1258.0,-1534.0
-32.0,-36.0,2.0,-34.0,-4000.0,-716.0,-1071.0,-1526.0
-46.0,-40.0,-6.0,-41.0,-4000.0,-149.0,-998.0,-1511.0
-20.0,-19.0,-4.0,-9.0,-4000.0,367.0,-867.0,-1508.0
-8.0,-31.0,-25.0,-26.0,-4000.0,693.0,-717.0,-1504.0
-4.0,-36.0,-45.0,-16.0,-4000.0,752.0,-607.0,-1511.0
-9.0,-13.0,-29.0,-48.0,-4000.0,441.0,-489.0,-1534.0
6.0,-34.0,-38.0,-55.0,-4000.0,-37.0,-415.0,-1558.0
11.0,2.0,-13.0,-5.0,-4000.0,-403.0,-373.0,-1558.0
6.0,2.0,2.0,-9.0,-4000.0,-745.0,-351.0,-1590.0
14.0,-24.0,1.0,-17.0,-4000.0,-993.0,-320.0,-1534.0
-10.0,13.0,-5.0,-8.0,-4000.0,-1075.0,-306.0,-1438.0
1.0,33.0,-19.0,15.0,-4000.0,-977.0,-323.0,-1274.0
-2.0,9.0,-12.0,10.0,-4000.0,-645.0,-250.0,-1050.0
-9.0,-6.0,1.0,20.0,-3701.0,-147.0,2.0,-824.0
-20.0,-1.0,12.0,25.0,-3237.0,273.0,233.0,-579.0
-2.0,16.0,17.0,16.0,-2611.0,433.0,415.0,-330.0
-11.0,1.0,15.0,23.0,-1817.0,406.0,608.0,-127.0
-23.0,4.0,7.0,40.0,-1123.0,248.0,759.0,82.0
-24.0,5.0,13.0,39.0,-767.0,211.0,954.0,237.0
-31.0,-12.0,-16.0,7.0,-150.0,278.0,1072.0,344.0
-4.0,-16.0,-19.0,15.0,635.0,601.0,1228.0,406.0
-32.0,-23.0,1.0,4.0,1018.0,1006.0,1345.0,485.0
-3.0,4.0,-24.0,-15.0,615.0,1227.0,1255.0,569.0
0.0,3.0,-13.0,-16.0,-364.0,1417.0,1183.0,629.0
-14.0,-6.0,-22.0,-50.0,-1120.0,1466.0,1084.0,686.0
6.0,33.0,1.0,-22.0,-1390.0,1340.0,1010.0,686.0
-1.0,46.0,9.0,16.0,-1823.0,1006.0,1027.0,745.0
0.0,37.0,-11.0,20.0,-2537.0,641.0,1060.0,749.0
-10.0,45.0,8.0,8.0,-2735.0,504.0,1051.0,760.0
-5.0,49.0,16.0,-25.0,-2572.0,463.0,1007.0,786.0
4.0,47.0,14.0,-44.0,-2466.0,404.0,889.0,811.0
-6.0,34.0,-10.0,-57.0,-2389.0,576.0,746.0,912.0
-21.0,19.0,-7.0,5.0,-2419.0,441.0,673.0,874.0
-21.0,29.0,-16.0,-2.0,-2287.0,-190.0,619.0,860.0
-17.0,-3.0,-17.0,-33.0,-2561.0,-1020.0,548.0,817.0
4.0,-2.0,9.0,-10.0,-3172.0,-1701.0,429.0,751.0
4.0,9.0,11.0,-34.0,-3655.0,-1701.0,284.0,695.0
-17.0,2.0,14.0,-14.0,-3767.0,-1248.0,246.0,654.0
9.0,13.0,-3.0,-13.0,-3586.0,-272.0,243.0,580.0
-7.0,11.0,-17.0,-18.0,-3628.0,932.0,271.0,419.0
-15.0,22.0,9.0,-7.0,-3655.0,1525.0,273.0,315.0
-14.0,-2.0,10.0,-15.0,-3701.0,1786.0,248.0,213.0
-15.0,-23.0,24.0,-13.0,-3474.0,1733.0,248.0,100.0
-15.0,-52.0,16.0,-10.0,-3442.0,880.0,291.0,-14.0
-34.0,-37.0,10.0,0.0,-3327.0,-278.0,386.0,-101.0
-9.0,-16.0,17.0,-5.0,-2664.0,-1092.0,417.0,-122.0
6.0,-7.0,10.0,10.0,-2419.0,-1375.0,326.0,-97.0
-14.0,-13.0,16.0,21.0,-2147.0,-1461.0,167.0,-70.0
-11.0,-39.0,-17.0,4.0,-1731.0,-1509.0,27.0,-35.0
-5.0,-28.0,-1.0,-18.0,-1573.0,-1396.0,-41.0,-42.0
-14.0,-52.0,-12.0,-34.0,-1666.0,-1103.0,-53.0,-42.0
-5.0,-48.0,-54.0,-50.0,-2063.0,-810.0,-94.0,-17.0
-16.0,-32.0,-26.0,-39.0,-2252.0,-442.0,-200.0,-30.0
-20.0,-24.0,-28.0,-38.0,-3127.0,15.0,-318.0,-18.0
-26.0,-24.0,-44.0,-33.0,-4000.0,-84.0,-416.0,-36.0
3.0,-36.0,-33.0,2.0,-4000.0,-586.0,-489.0,-7.0
0.0,8.0,5.0,11.0,-4000.0,-489.0,-533.0,59.0
-26.0,-1.0,-1.0,10.0,-4000.0,-266.0,-522.0,83.0
-16.0,-12.0,-16.0,-28.0,-4000.0,-75.0,-522.0,76.0
-26.0,-3.0,-27.0,-14.0,-4000.0,-146.0,-555.0,83.0
-9.0,-8.0,-28.0,-7.0,-4000.0,-442.0,-576.0,122.0
-14.0,19.0,-29.0,-22.0,-4000.0,-314.0,-510.0,151.0
-17.0,11.0,-29.0,-37.0,-4000.0,-280.0,-412.0,201.0
-15.0,4.0,-4.0,-19.0,-4000.0,25.0,-436.0,213.0
-13.0,-6.0,-10.0,-22.0,-4000.0,74.0,-565.0,216.0
-6.0,20.0,36.0,-60.0,-4000.0,79.0,-598.0,239.0
-9.0,10.0,-8.0,-55.0,-4000.0,189.0,-565.0,230.0
-3.0,-11.0,-25.0,-50.0,-4000.0,20.0,-546.0,224.0
-12.0,9.0,15.0,-40.0,-4000.0,37.0,-522.0,164.0
-9.0,12.0,-12.0,-41.0,-4000.0,-12.0,-505.0,80.0
5.0,25.0,14.0,-57.0,-2419.0,183.0,-481.0,8.0
1.0,30.0,19.0,-38.0,804.0,315.0,-410.0,-97.0
-11.0,13.0,-10.0,5.0,4000.0,281.0,-200.0,-186.0
-12.0,-4.0,0.0,23.0,4000.0,135.0,18.0,-247.0
13.0,17.0,23.0,13.0,4000.0,30.0,162.0,-317.0
-8.0,33.0,-3.0,19.0,4000.0,248.0,191.0,-366.0
-23.0,22.0,-2.0,33.0,4000.0,449.0,191.0,-398.0
-1.0,24.0,-3.0,47.0,4000.0,554.0,309.0,-427.0
-2.0,34.0,17.0,46.0,4000.0,520.0,355.0,-472.0
4.0,31.0,14.0,22.0,4000.0,329.0,177.0,-447.0
21.0,67.0,6.0,15.0,4000.0,196.0,19.0,-370.0
9.0,57.0,31.0,-6.0,4000.0,135.0,-3.0,-325.0
-10.0,3.0,-7.0,-52.0,4000.0,17.0,1.0,-248.0
5.0,31.0,-11.0,-75.0,4000.0,172.0,42.0,-135.0
13.0,38.0,-16.0,-74.0,4000.0,431.0,2.0,-53.0
-14.0,29.0,4.0,-42.0,4000.0,636.0,-127.0,17.0
-1.0,36.0,0.0,-44.0,4000.0,831.0,-200.0,72.0
-18.0,30.0,3.0,-54.0,4000.0,748.0,-159.0,147.0
-48.0,5.0,8.0,-13.0,4000.0,431.0,-85.0,239.0
-32.0,7.0,13.0,2.0,4000.0,86.0,-95.0,276.0
-24.0,25.0,2.0,20.0,4000.0,-208.0,-39.0,312.0
-10.0,-12.0,0.0,20.0,4000.0,-391.0,-9.0,360.0
-19.0,-10.0,35.0,36.0,4000.0,-175.0,-19.0,389.0
-13.0,1.0,-4.0,42.0,4000.0,191.0,17.0,396.0
2.0,-2.0,-17.0,-6.0,4000.0,391.0,0.0,387.0
-24.0,8.0,-17.0,7.0,4000.0,380.0,29.0,399.0
-10.0,6.0,-30.0,-14.0,4000.0,213.0,35.0,399.0
2.0,8.0,-15.0,-46.0,4000.0,83.0,85.0,418.0
-15.0,-4.0,-16.0,-23.0,4000.0,-195.0,107.0,453.0
-32.0,-9.0,-26.0,-63.0,4000.0,-576.0,60.0,467.0
-8.0,-17.0,-45.0,-50.0,4000.0,-750.0,116.0,503.0
9.0,-28.0,-26.0,-23.0,3983.0,-665.0,220.0,516.0
-13.0,-17.0,-7.0,-29.0,3789.0,-511.0,271.0,491.0
-31.0,-28.0,-14.0,-33.0,3476.0,-152.0,210.0,485.0
-3.0,-46.0,-4.0,-28.0,3167.0,364.0,169.0,442.0
-1.0,-49.0,-4.0,-10.0,3008.0,607.0,172.0,483.0
-11.0,-23.0,-27.0,-10.0,2842.0,687.0,201.0,536.0
-20.0,-17.0,-14.0,-11.0,2776.0,439.0,238.0,471.0
-9.0,-41.0,-13.0,10.0,2776.0,-41.0,276.0,409.0
4.0,-11.0,-27.0,6.0,2745.0,-533.0,315.0,358.0
-14.0,7.0,-21.0,-20.0,2630.0,-763.0,274.0,299.0
-12.0,2.0,-24.0,7.0,2428.0,-816.0,223.0,277.0
-15.0,-11.0,-15.0,10.0,1873.0,-620.0,246.0,227.0
-15.0,3.0,-34.0,-15.0,1287.0,-221.0,224.0,138.0
-26.0,-5.0,-33.0,-22.0,607.0,-293.0,194.0,59.0
-25.0,-12.0,-21.0,-15.0,-176.0,-139.0,191.0,-29.0
-20.0,9.0,-18.0,-29.0,-898.0,90.0,112.0,-90.0
-7.0,10.0,1.0,-39.0,-1599.0,236.0,61.0,-175.0
-14.0,-16.0,-12.0,-36.0,-1963.0,486.0,18.0,-256.0
-20.0,-3.0,-14.0,-44.0,-1978.0,494.0,39.0,-251.0
9.0,1.0,-22.0,-34.0,-1882.0,321.0,96.0,-232.0
15.0,17.0,-22.0,-2.0,-1333.0,-12.0,82.0,-265.0
12.0,25.0,-21.0,-12.0,-614.0,-394.0,105.0,-274.0
8.0,-11.0,-29.0,-20.0,22.0,-436.0,110.0,-264.0
2.0,-7.0,-9.0,-31.0,859.0,-34.0,91.0,-217.0
-8.0,1.0,-16.0,-46.0,1539.0,124.0,127.0,-142.0
-2.0,5.0,-25.0,-25.0,2308.0,376.0,229.0,-101.0
12.0,6.0,-15.0,-18.0,3008.0,815.0,236.0,-39.0
16.0,7.0,-31.0,-10.0,3558.0,953.0,129.0,-69.0
-10.0,27.0,-24.0,7.0,4000.0,860.0,54.0,-100.0
-23.0,16.0,-1.0,3.0,4000.0,589.0,24.0,-44.0
-11.0,26.0,12.0,30.0,4000.0,384.0,54.0,-61.0
-13.0,14.0,15.0,15.0,4000.0,283.0,159.0,-196.0
-9.0,19.0,15.0,11.0,4000.0,197.0,202.0,-492.0
-11.0,22.0,-3.0,25.0,4000.0,78.0,124.0,-344.0
-16.0,31.0,-33.0,0.0,4000.0,-124.0,-3.0,-133.0
-8.0,48.0,-31.0,-3.0,4000.0,-327.0,-72.0,-527.0
-15.0,30.0,-2.0,-10.0,4000.0,-143.0,-53.0,-340.0
-6.0,29.0,-29.0,16.0,4000.0,315.0,0.0,128.0
14.0,13.0,-50.0,14.0,4000.0,701.0,54.0,4.0
-5.0,13.0,-24.0,19.0,4000.0,860.0,-63.0,59.0
-2.0,19.0,-22.0,16.0,4000.0,822.0,-253.0,-19.0
8.0,-8.0,-12.0,8.0,3902.0,603.0,-156.0,-163.0
-8.0,-23.0,-24.0,31.0,3592.0,425.0,189.0,74.0
10.0,-20.0,-11.0,8.0,3020.0,506.0,431.0,213.0
6.0,-37.0,6.0,3.0,2320.0,636.0,464.0,145.0
-12.0,-33.0,4.0,1.0,1488.0,822.0,365.0,170.0
-17.0,-18.0,33.0,-27.0,562.0,732.0,194.0,169.0
-21.0,-22.0,27.0,-48.0,-412.0,404.0,9.0,133.0
-23.0,-23.0,5.0,-68.0,-1265.0,98.0,-167.0,95.0
-14.0,-38.0,-26.0,-92.0,-1992.0,-214.0,-290.0,-33.0
-2.0,-63.0,-42.0,-45.0,-2537.0,-501.0,-200.0,-183.0
3.0,-28.0,-41.0,-12.0,-2860.0,-434.0,-135.0,-592.0
-3.0,8.0,-3.0,-10.0,-3001.0,-286.0,-154.0,-824.0
21.0,-6.0,14.0,-14.0,-2931.0,-409.0,-257.0,-350.0
15.0,16.0,30.0,-34.0,-2922.0,-250.0,-473.0,-38.0
0.0,-20.0,69.0,-40.0,-2953.0,-323.0,-583.0,-138.0
7.0,-23.0,48.0,-23.0,-2935.0,-284.0,-750.0,-44.0
1.0,-1.0,53.0,1.0,-2757.0,102.0,-811.0,-259.0
27.0,-8.0,74.0,-37.0,-2406.0,137.0,-790.0,-305.0
-14.0,5.0,67.0,-77.0,-2009.0,136.0,-657.0,-170.0
-11.0,-29.0,85.0,-141.0,-1691.0,85.0,-257.0,-144.0
-12.0,0.0,86.0,-173.0,-1573.0,-84.0,-10.0,-27.0
-42.0,-6.0,84.0,-206.0,-1638.0,-198.0,-46.0,-79.0
-32.0,-4.0,106.0,-213.0,-1691.0,-316.0,-102.0,-141.0
-47.0,28.0,89.0,-152.0,-1717.0,-402.0,-20.0,182.0
-33.0,12.0,104.0,-149.0,-1803.0,-297.0,188.0,522.0
-13.0,46.0,111.0,-113.0,-1992.0,-224.0,543.0,265.0
-29.0,33.0,77.0,-106.0,-2147.0,-175.0,824.0,171.0
-24.0,46.0,71.0,-92.0,-2147.0,-182.0,954.0,275.0
-24.0,37.0,70.0,-71.0,-2093.0,-159.0,954.0,397.0
-52.0,34.0,30.0,-47.0,-2075.0,-146.0,824.0,491.0
-44.0,56.0,-9.0,-4.0,-2018.0,-172.0,557.0,360.0
-29.0,31.0,-5.0,20.0,-1784.0,-98.0,464.0,294.0
-51.0,30.0,-16.0,35.0,-1272.0,-132.0,995.0,340.0
-42.0,17.0,-44.0,37.0,-608.0,-141.0,1288.0,384.0
-33.0,-6.0,-59.0,63.0,-37.0,-125.0,968.0,184.0
-5.0,31.0,-69.0,71.0,509.0,-130.0,366.0,95.0
10.0,52.0,-93.0,87.0,953.0,-162.0,90.0,7.0
9.0,58.0,-86.0,109.0,1136.0,-157.0,325.0,-70.0
15.0,58.0,-79.0,122.0,1070.0,-129.0,338.0,621.0
-20.0,30.0,-67.0,140.0,606.0,-180.0,120.0,874.0
3.0,34.0,-64.0,138.0,-364.0,-202.0,5.0,795.0
-13.0,44.0,-66.0,129.0,-1653.0,-167.0,86.0,1000.0
2.0,66.0,-88.0,101.0,-2953.0,-145.0,120.0,707.0
25.0,30.0,-64.0,113.0,-3982.0,-110.0,-167.0,434.0
-10.0,23.0,-61.0,105.0,-4000.0,-72.0,-475.0,255.0
-9.0,29.0,-84.0,47.0,-4000.0,-79.0,-221.0,621.0
-1.0,16.0,-32.0,43.0,-4000.0,-24.0,234.0,53.0
-11.0,25.0,-65.0,13.0,-4000.0,-7.0,610.0,-223.0
-16.0,2.0,-67.0,-23.0,-4000.0,-11.0,717.0,612.0
15.0,13.0,-62.0,-23.0,-4000.0,-13.0,486.0,-197.0
11.0,-13.0,-54.0,-23.0,-4000.0,-19.0,183.0,-904.0
24.0,-2.0,-32.0,-1.0,-4000.0,10.0,-172.0,-787.0
16.0,6.0,-40.0,12.0,-4000.0,-16.0,-394.0,-919.0
-20.0,13.0,-19.0,-8.0,-4000.0,-29.0,-510.0,-627.0
12.0,-1.0,-56.0,-22.0,-4000.0,-16.0,-394.0,127.0
6.0,-31.0,-26.0,12.0,-4000.0,3.0,-257.0,-42.0
-11.0,-16.0,-15.0,10.0,-4000.0,-1.0,-241.0,55.0
-17.0,-27.0,-7.0,2.0,-4000.0,-3.0,-207.0,117.0
12.0,-6.0,-28.0,10.0,-4000.0,44.0,-196.0,-683.0
6.0,-19.0,-38.0,-29.0,-4000.0,37.0,-226.0,-412.0
-12.0,-20.0,-6.0,-10.0,-3474.0,33.0,-182.0,2.0
6.0,-30.0,-4.0,-29.0,-2688.0,65.0,-189.0,204.0
-6.0,-18.0,6.0,-43.0,-1918.0,86.0,-415.0,-37.0
-11.0,-9.0,-9.0,-25.0,-1137.0,70.0,-410.0,-251.0
-3.0,-30.0,16.0,-30.0,-376.0,81.0,-320.0,-217.0
-17.0,-59.0,12.0,-1.0,273.0,83.0,-247.0,349.0
-23.0,-73.0,8.0,4.0,808.0,85.0,-39.0,1395.0
-10.0,-53.0,20.0,-4.0,1189.0,91.0,76.0,1118.0
-12.0,-38.0,14.0,-28.0,1482.0,94.0,105.0,442.0
-6.0,-16.0,19.0,-30.0,1824.0,115.0,1.0,-419.0
12.0,-37.0,4.0,-21.0,2125.0,130.0,-186.0,-584.0
9.0,-25.0,18.0,15.0,2443.0,140.0,-188.0,-35.0
21.0,7.0,47.0,-5.0,2760.0,152.0,-9.0,742.0
-9.0,23.0,40.0,-12.0,3020.0,189.0,177.0,882.0
-14.0,25.0,40.0,12.0,3334.0,188.0,-26.0,-248.0
20.0,10.0,36.0,-12.0,3623.0,163.0,-94.0,-620.0
7.0,11.0,2.0,-31.0,3789.0,127.0,166.0,-562.0
16.0,33.0,31.0,-17.0,3867.0,40.0,79.0,-27.0
-2.0,53.0,42.0,-15.0,3916.0,-69.0,-94.0,695.0
0.0,29.0,14.0,-19.0,4000.0,-108.0,-327.0,955.0
33.0,40.0,28.0,-32.0,4000.0,-89.0,-458.0,629.0
22.0,59.0,27.0,-65.0,4000.0,-134.0,-398.0,61.0
25.0,41.0,16.0,-81.0,4000.0,-204.0,-351.0,-189.0
21.0,5.0,8.0,-107.0,4000.0,-62.0,-247.0,-168.0
-3.0,27.0,17.0,-82.0,4000.0,47.0,-407.0,-859.0
-6.0,12.0,3.0,-35.0,3903.0,33.0,-911.0,-2179.0
-20.0,-7.0,-8.0,-31.0,3558.0,71.0,-1187.0,-2848.0
-34.0,-23.0,-11.0,-55.0,3037.0,49.0,-1141.0,-2069.0
-62.0,-62.0,-46.0,-74.0,2254.0,43.0,-1249.0,-818.0
-55.0,-52.0,-43.0,-62.0,1538.0,25.0,-1181.0,-1037.0
-25.0,-34.0,-50.0,-57.0,994.0,25.0,-1006.0,-1432.0
-29.0,-39.0,-38.0,-44.0,583.0,24.0,-789.0,-649.0
-27.0,-79.0,-48.0,-78.0,379.0,36.0,-516.0,266.0
-29.0,-45.0,-46.0,-84.0,440.0,74.0,-527.0,361.0
-17.0,-32.0,-20.0,-61.0,583.0,56.0,-664.0,471.0
-11.0,-11.0,-39.0,-76.0,657.0,66.0,-855.0,462.0
-27.0,13.0,4.0,-55.0,692.0,71.0,-873.0,373.0
-34.0,-6.0,13.0,-17.0,626.0,51.0,-729.0,497.0
-17.0,23.0,17.0,-9.0,440.0,42.0,-298.0,462.0
11.0,40.0,36.0,-12.0,270.0,37.0,-63.0,497.0
3.0,64.0,7.0,5.0,242.0,37.0,-267.0,461.0
15.0,49.0,6.0,29.0,248.0,34.0,-202.0,434.0
-10.0,-1.0,-1.0,16.0,260.0,40.0,254.0,326.0
-42.0,-4.0,-17.0,20.0,318.0,32.0,498.0,254.0
-26.0,13.0,-15.0,28.0,336.0,36.0,616.0,329.0
1.0,24.0,11.0,41.0,393.0,47.0,903.0,474.0
10.0,29.0,40.0,57.0,432.0,32.0,642.0,474.0
-6.0,33.0,35.0,20.0,383.0,28.0,-384.0,491.0
17.0,31.0,39.0,10.0,340.0,0.0,-1051.0,695.0
15.0,25.0,31.0,16.0,328.0,-22.0,-290.0,882.0
-1.0,7.0,10.0,-22.0,348.0,-28.0,506.0,817.0
7.0,19.0,-13.0,-22.0,335.0,-27.0,523.0,255.0
6.0,19.0,-40.0,-12.0,137.0,-13.0,376.0,-223.0
6.0,-32.0,-30.0,-51.0,-136.0,-15.0,615.0,-510.0
-17.0,-10.0,-28.0,-42.0,-253.0,-15.0,1027.0,-918.0
-48.0,-11.0,-28.0,-18.0,-196.0,-12.0,1202.0,-1365.0
-70.0,-26.0,-42.0,-6.0,6.0,0.0,1469.0,-1058.0
-50.0,-18.0,-28.0,-2.0,135.0,13.0,1548.0,-489.0
-5.0,28.0,13.0,0.0,119.0,12.0,1526.0,-653.0
-12.0,46.0,-8.0,-29.0,154.0,13.0,1202.0,-305.0
-29.0,16.0,-9.0,-48.0,217.0,27.0,412.0,379.0
-18.0,5.0,-3.0,-36.0,454.0,8.0,-196.0,629.0
-11.0,5.0,-14.0,-36.0,758.0,13.0,-320.0,526.0
2.0,1.0,-10.0,1.0,1018.0,8.0,368.0,580.0
-4.0,-33.0,6.0,27.0,1104.0,10.0,1205.0,314.0
-11.0,-45.0,13.0,18.0,880.0,27.0,1084.0,-79.0
3.0,-37.0,19.0,18.0,505.0,16.0,889.0,-30.0
-15.0,-4.0,6.0,-7.0,106.0,25.0,897.0,-3.0
6.0,20.0,20.0,-7.0,-215.0,33.0,702.0,-10.0
5.0,34.0,12.0,-5.0,-364.0,36.0,597.0,-143.0
26.0,52.0,-25.0,1.0,-305.0,10.0,772.0,58.0
49.0,82.0,-42.0,-9.0,-174.0,11.0,1270.0,38.0
15.0,73.0,-33.0,-15.0,-240.0,23.0,1475.0,-11.0
-4.0,14.0,-5.0,-15.0,-482.0,1.0,1228.0,40.0
-17.0,14.0,-11.0,-36.0,-869.0,18.0,948.0,15.0
-13.0,41.0,-11.0,-44.0,-1398.0,16.0,824.0,-79.0
-3.0,3.0,-22.0,-51.0,-2147.0,-6.0,667.0,-235.0
1.0,-28.0,-9.0,4.0,-2912.0,19.0,587.0,123.0
-5.0,-24.0,42.0,33.0,-3278.0,29.0,478.0,301.0
14.0,-46.0,16.0,2.0,-3539.0,-14.0,298.0,269.0
15.0,-22.0,-32.0,-56.0,-3767.0,1.0,59.0,328.0
11.0,-15.0,-17.0,-78.0,-3950.0,0.0,-195.0,329.0
2.0,-41.0,-5.0,-41.0,-3982.0,-20.0,-216.0,474.0
-14.0,-47.0,-29.0,-21.0,-3835.0,1.0,-323.0,434.0
-5.0,2.0,-20.0,-23.0,-3663.0,-11.0,-342.0,462.0
-3.0,43.0,2.0,-45.0,-3327.0,-5.0,-331.0,629.0
-8.0,30.0,-14.0,-39.0,-2870.0,4.0,-268.0,615.0
-21.0,36.0,-8.0,-59.0,-2289.0,-12.0,-179.0,418.0
-6.0,69.0,11.0,-64.0,-1853.0,-11.0,-359.0,308.0
-15.0,75.0,28.0,-34.0,-1626.0,-1.0,-442.0,420.0
-16.0,22.0,-5.0,-36.0,-1424.0,-23.0,-378.0,102.0
-30.0,-49.0,-11.0,-13.0,-1318.0,6.0,-216.0,-278.0
-61.0,-59.0,25.0,-14.0,-1179.0,-11.0,-17.0,-269.0
-61.0,-82.0,-1.0,-16.0,-1064.0,-45.0,-17.0,134.0
-50.0,-58.0,-10.0,-13.0,-827.0,-13.0,-83.0,538.0
-52.0,-29.0,-16.0,-16.0,-473.0,-30.0,-29.0,660.0
-43.0,-52.0,-7.0,-5.0,-77.0,0.0,126.0,941.0
-36.0,-6.0,16.0,2.0,383.0,-34.0,270.0,817.0
-32.0,4.0,-11.0,0.0,831.0,-27.0,294.0,784.0
6.0,31.0,7.0,-5.0,1183.0,1.0,238.0,881.0
-9.0,46.0,8.0,25.0,1468.0,1.0,183.0,992.0
-10.0,44.0,-21.0,31.0,1733.0,30.0,143.0,1176.0
0.0,47.0,-2.0,36.0,1669.0,16.0,85.0,1207.0
-2.0,34.0,-12.0,67.0,1009.0,35.0,77.0,1260.0
-6.0,57.0,3.0,67.0,171.0,23.0,5.0,1077.0
-7.0,33.0,-3.0,46.0,-108.0,42.0,-279.0,1069.0
-11.0,48.0,-25.0,23.0,-114.0,19.0,-615.0,882.0
-26.0,34.0,0.0,7.0,-234.0,10.0,-743.0,660.0
-24.0,4.0,-9.0,-7.0,-356.0,19.0,-290.0,543.0
-1.0,11.0,-3.0,16.0,-295.0,31.0,336.0,409.0
-2.0,6.0,10.0,11.0,-186.0,95.0,551.0,456.0
15.0,38.0,-7.0,-39.0,-22.0,46.0,339.0,434.0
23.0,37.0,-18.0,-38.0,351.0,42.0,-277.0,361.0
33.0,59.0,-30.0,-21.0,947.0,50.0,-852.0,304.0
39.0,48.0,-28.0,-24.0,1666.0,41.0,-1184.0,160.0
-27.0,-1.0,-22.0,-65.0,2451.0,42.0,-1116.0,-67.0
-18.0,-35.0,-11.0,-89.0,3334.0,34.0,-743.0,-366.0
-17.0,-27.0,-26.0,-55.0,3916.0,45.0,-941.0,-753.0
-3.0,-7.0,-4.0,-42.0,4000.0,37.0,-1332.0,-883.0
11.0,19.0,15.0,-24.0,4000.0,16.0,-1397.0,-1123.0
35.0,60.0,2.0,21.0,4000.0,0.0,-1119.0,-1449.0
59.0,89.0,11.0,0.0,4000.0,-14.0,-338.0,-1208.0
28.0,99.0,-10.0,-8.0,4000.0,2.0,138.0,-842.0
17.0,60.0,-20.0,-2.0,4000.0,38.0,20.0,-670.0
11.0,51.0,-1.0,-20.0,4000.0,37.0,-652.0,-647.0
-4.0,2.0,-1.0,-9.0,4000.0,22.0,-1266.0,-673.0
-29.0,-79.0,-25.0,25.0,4000.0,-46.0,-1011.0,-710.0
-74.0,-105.0,-7.0,0.0,3989.0,-104.0,-314.0,-627.0
-128.0,-130.0,-2.0,-22.0,4000.0,-104.0,441.0,-614.0
-125.0,-143.0,-37.0,-27.0,4000.0,-125.0,1540.0,-773.0
-60.0,-110.0,-30.0,-46.0,3989.0,-33.0,1967.0,-673.0
-39.0,-97.0,-29.0,-42.0,3529.0,-5.0,1084.0,-605.0
-20.0,-117.0,-8.0,-35.0,2907.0,-34.0,538.0,-846.0
1.0,-79.0,-7.0,-57.0,2229.0,21.0,366.0,-1143.0
-33.0,-63.0,-4.0,-59.0,1930.0,4.0,857.0,-1256.0
5.0,-2.0,-10.0,-66.0,1787.0,2.0,1248.0,-1255.0
31.0,53.0,-26.0,-48.0,1734.0,32.0,1164.0,-1404.0
18.0,52.0,11.0,-6.0,1824.0,-24.0,1457.0,-1762.0
44.0,89.0,-22.0,-11.0,1710.0,-59.0,1125.0,-2346.0
-3.0,18.0,-11.0,15.0,1253.0,-112.0,433.0,-3127.0
-45.0,-60.0,-12.0,13.0,621.0,-161.0,188.0,-3374.0
-61.0,-77.0,-20.0,11.0,136.0,-46.0,903.0,-2694.0
-66.0,-47.0,-2.0,52.0,-160.0,54.0,2125.0,-2051.0
-61.0,-36.0,3.0,33.0,-99.0,271.0,3006.0,-2100.0
-49.0,-27.0,2.0,-17.0,-28.0,628.0,3397.0,-2179.0
-1.0,66.0,3.0,-25.0,-242.0,636.0,3542.0,-1672.0
20.0,47.0,2.0,-10.0,-686.0,309.0,3411.0,-1143.0
-9.0,46.0,3.0,-22.0,-934.0,146.0,2696.0,-1005.0
7.0,58.0,-2.0,-17.0,-1055.0,213.0,1353.0,-918.0
36.0,7.0,-10.0,-13.0,-1292.0,130.0,248.0,-758.0
36.0,28.0,2.0,-24.0,-1463.0,57.0,-79.0,-744.0
41.0,34.0,-11.0,-31.0,-1703.0,197.0,-66.0,-562.0
31.0,28.0,-6.0,-22.0,-1768.0,283.0,107.0,-378.0
38.0,54.0,-15.0,-18.0,-1849.0,351.0,268.0,-201.0
42.0,58.0,-21.0,-10.0,-1898.0,155.0,207.0,190.0
31.0,29.0,-2.0,-6.0,-1962.0,-186.0,23.0,742.0
4.0,15.0,10.0,3.0,-2318.0,-125.0,-167.0,1216.0
-13.0,-8.0,-13.0,4.0,-2578.0,38.0,-565.0,1598.0
-24.0,-26.0,-7.0,-10.0,-2627.0,-40.0,-1189.0,1859.0
-37.0,-11.0,18.0,26.0,-2483.0,-139.0,-1816.0,1895.0
-23.0,-12.0,1.0,18.0,-2224.0,-101.0,-1884.0,2042.0
14.0,-10.0,0.0,-15.0,-2224.0,70.0,-1358.0,2248.0
6.0,28.0,18.0,-15.0,-2290.0,220.0,-1006.0,2118.0
-2.0,44.0,14.0,-19.0,-2212.0,249.0,-1063.0,1924.0
-2.0,11.0,3.0,-3.0,-2147.0,115.0,-1291.0,1833.0
-42.0,2.0,-10.0,-34.0,-2187.0,-104.0,-1422.0,2013.0
-62.0,8.0,-30.0,-24.0,-2187.0,-287.0,-1487.0,2300.0
-31.0,24.0,-22.0,7.0,-2252.0,-313.0,-1767.0,2225.0
7.0,26.0,-15.0,-9.0,-2341.0,112.0,-2224.0,2290.0
11.0,-3.0,20.0,-29.0,-2139.0,415.0,-2626.0,2218.0
-7.0,17.0,5.0,-36.0,-2094.0,532.0,-2842.0,2106.0
-13.0,27.0,-4.0,-12.0,-1797.0,622.0,-2687.0,2042.0
-4.0,23.0,10.0,-8.0,-1398.0,386.0,-2288.0,1859.0
17.0,4.0,-9.0,-4.0,-1333.0,16.0,-1848.0,1769.0
31.0,12.0,34.0,27.0,-1267.0,-187.0,-1441.0,1595.0
25.0,36.0,20.0,39.0,-1508.0,-109.0,-1234.0,1476.0
5.0,24.0,14.0,6.0,-1504.0,-34.0,-1011.0,1338.0
-4.0,34.0,20.0,-2.0,-1137.0,142.0,-912.0,1216.0
33.0,25.0,17.0,-17.0,-608.0,347.0,-986.0,1118.0
21.0,14.0,24.0,-17.0,-148.0,124.0,-1258.0,992.0
-8.0,5.0,8.0,-10.0,71.0,-238.0,-1332.0,882.0
-25.0,26.0,13.0,-20.0,-20.0,-442.0,-1123.0,751.0
-27.0,-7.0,2.0,-20.0,-307.0,-476.0,-1193.0,569.0
-14.0,-16.0,-11.0,-12.0,-274.0,-362.0,-1441.0,442.0
-31.0,-1.0,-36.0,16.0,-10.0,-394.0,-1490.0,331.0
-36.0,-22.0,2.0,20.0,184.0,-485.0,-1397.0,219.0
-14.0,-12.0,-14.0,16.0,242.0,-419.0,-1332.0,141.0
-17.0,-1.0,-29.0,5.0,182.0,-415.0,-1487.0,17.0
-22.0,-6.0,-18.0,-49.0,-40.0,-316.0,-1670.0,-67.0
-33.0,-24.0,-36.0,-65.0,-315.0,119.0,-1702.0,-104.0
-45.0,-27.0,-10.0,-68.0,-313.0,563.0,-1527.0,-138.0
-24.0,-30.0,-28.0,-75.0,-201.0,749.0,-1128.0,-199.0
-16.0,-14.0,-18.0,-101.0,-64.0,628.0,-550.0,-240.0
-23.0,-8.0,-11.0,-127.0,348.0,339.0,785.0,-295.0
-3.0,0.0,4.0,-121.0,729.0,79.0,2505.0,-400.0
-16.0,1.0,9.0,-109.0,870.0,-167.0,3803.0,-464.0
-15.0,0.0,-3.0,-105.0,496.0,-450.0,4000.0,-525.0
-15.0,-10.0,-1.0,-113.0,183.0,-620.0,4000.0,-553.0
-33.0,11.0,-14.0,-94.0,5.0,-685.0,4000.0,-536.0
3.0,41.0,-17.0,-36.0,-576.0,-607.0,3624.0,-592.0
-4.0,24.0,-34.0,3.0,-773.0,-442.0,2843.0,-715.0
-25.0,6.0,-16.0,5.0,-339.0,-289.0,2811.0,-781.0
-8.0,1.0,1.0,28.0,-248.0,-84.0,3734.0,-924.0
-16.0,9.0,-11.0,45.0,-1006.0,156.0,4000.0,-1115.0
-23.0,2.0,-11.0,16.0,-1737.0,315.0,4000.0,-1256.0
-21.0,-5.0,7.0,45.0,-2095.0,358.0,4000.0,-1404.0
1.0,3.0,15.0,88.0,-2028.0,386.0,3795.0,-1521.0
40.0,36.0,11.0,67.0,-1637.0,326.0,2908.0,-1743.0
4.0,9.0,9.0,64.0,-1691.0,205.0,2941.0,-1924.0
-9.0,-19.0,-8.0,54.0,-1833.0,119.0,2517.0,-2098.0
-8.0,2.0,-30.0,8.0,-1635.0,25.0,2387.0,-2256.0
-3.0,-16.0,-36.0,-19.0,-1455.0,-39.0,2061.0,-2324.0
5.0,3.0,-28.0,-17.0,-1198.0,-64.0,930.0,-2319.0
-21.0,9.0,-27.0,12.0,-763.0,-66.0,176.0,-2259.0
1.0,-8.0,-21.0,8.0,-665.0,-41.0,-44.0,-2193.0
-20.0,2.0,-25.0,-18.0,-968.0,-90.0,-198.0,-2069.0
-34.0,-16.0,-44.0,-1.0,-1455.0,-143.0,110.0,-1951.0
1.0,-23.0,-56.0,-12.0,-1915.0,-162.0,392.0,-1839.0
-23.0,-18.0,-28.0,-23.0,-2247.0,-204.0,155.0,-1756.0
-28.0,-44.0,-9.0,-25.0,-2577.0,-195.0,-327.0,-1655.0
-11.0,-46.0,-12.0,-17.0,-2741.0,-188.0,-664.0,-1504.0
1.0,-74.0,0.0,-10.0,-2434.0,-91.0,-907.0,-1318.0
-12.0,-42.0,-18.0,-22.0,-1665.0,29.0,-1246.0,-1120.0
-18.0,-18.0,-12.0,-38.0,-869.0,134.0,-1572.0,-918.0
0.0,-26.0,5.0,-36.0,-227.0,223.0,-2093.0,-744.0
-31.0,-7.0,4.0,-61.0,-60.0,256.0,-2576.0,-572.0
-31.0,-20.0,-11.0,-101.0,-252.0,311.0,-2951.0,-419.0
-44.0,-5.0,-15.0,-55.0,219.0,380.0,-3516.0,-228.0
-51.0,-1.0,28.0,-21.0,1118.0,477.0,-4000.0,-59.0
-31.0,3.0,21.0,-24.0,2425.0,571.0,-4000.0,100.0
-39.0,0.0,11.0,-8.0,3606.0,701.0,-4000.0,255.0
-9.0,8.0,32.0,-6.0,3733.0,734.0,-4000.0,367.0
-3.0,8.0,20.0,-11.0,3071.0,678.0,-4000.0,507.0
4.0,16.0,39.0,10.0,2057.0,1077.0,-4000.0,609.0
8.0,36.0,53.0,16.0,1710.0,1553.0,-3916.0,680.0
9.0,36.0,33.0,-11.0,1669.0,1204.0,-3326.0,751.0
-5.0,38.0,21.0,-22.0,1539.0,97.0,-3196.0,811.0
7.0,43.0,24.0,-2.0,1468.0,-1792.0,-3255.0,871.0
25.0,55.0,24.0,12.0,1287.0,-3376.0,-3065.0,914.0
17.0,71.0,38.0,22.0,692.0,-3583.0,-2856.0,914.0
1.0,29.0,30.0,-1.0,143.0,-3246.0,-2714.0,938.0
4.0,9.0,20.0,-11.0,415.0,-3323.0,-2560.0,939.0
11.0,21.0,36.0,-10.0,888.0,-3600.0,-2570.0,938.0
8.0,22.0,36.0,-19.0,1222.0,-3010.0,-2317.0,947.0
-1.0,38.0,33.0,-12.0,859.0,-1763.0,-2093.0,922.0
-4.0,14.0,30.0,-14.0,597.0,-7.0,-1783.0,911.0
-1.0,2.0,4.0,27.0,817.0,1786.0,-1551.0,939.0
18.0,-18.0,5.0,-17.0,1314.0,3148.0,-1652.0,1012.0
17.0,-41.0,-5.0,-65.0,2160.0,3409.0,-1652.0,1118.0
-30.0,-29.0,-13.0,-34.0,2504.0,3409.0,-1572.0,1207.0
-12.0,-5.0,3.0,-41.0,1992.0,4000.0,-1332.0,1263.0
-25.0,-12.0,-11.0,-63.0,1118.0,4000.0,-1248.0,1334.0
-46.0,-26.0,-29.0,-78.0,576.0,4000.0,-1332.0,1403.0
-9.0,-7.0,-31.0,-66.0,140.0,4000.0,-1312.0,1468.0
-13.0,0.0,-26.0,-90.0,961.0,4000.0,-1201.0,1502.0
-14.0,0.0,-6.0,-64.0,2254.0,3345.0,-1252.0,1521.0
-17.0,17.0,-24.0,-55.0,2630.0,2056.0,-1449.0,1502.0
-17.0,-10.0,-39.0,-69.0,2224.0,732.0,-1383.0,1515.0
-15.0,-3.0,-12.0,-4.0,1574.0,-417.0,-1120.0,1521.0
-23.0,19.0,-15.0,31.0,1710.0,-2014.0,-1076.0,1411.0
-6.0,18.0,-21.0,19.0,2428.0,-3441.0,-1141.0,1399.0
-18.0,8.0,-37.0,19.0,2485.0,-4000.0,-1173.0,1374.0
-13.0,-2.0,-49.0,4.0,961.0,-4000.0,-1006.0,1388.0
-10.0,-8.0,-16.0,6.0,-869.0,-4000.0,-728.0,1391.0
-4.0,-13.0,-17.0,19.0,-1944.0,-4000.0,-434.0,1346.0
5.0,-23.0,-27.0,9.0,-2108.0,-4000.0,-145.0,1403.0
-9.0,5.0,-9.0,13.0,-2222.0,-4000.0,209.0,1468.0
-14.0,11.0,-2.0,12.0,-2341.0,-4000.0,665.0,1541.0
-8.0,0.0,-9.0,35.0,-2316.0,-3978.0,1011.0,1663.0
4.0,16.0,-17.0,24.0,-2418.0,-2575.0,1353.0,1859.0
-11.0,22.0,-8.0,15.0,-1750.0,-1121.0,1658.0,2042.0
-11.0,47.0,-14.0,11.0,-360.0,123.0,1866.0,2118.0
-16.0,14.0,9.0,-25.0,998.0,988.0,2101.0,2160.0
8.0,22.0,14.0,-9.0,1734.0,1639.0,2191.0,2183.0
13.0,48.0,-9.0,-33.0,1453.0,2355.0,2377.0,2284.0
-1.0,31.0,-5.0,-56.0,553.0,2942.0,2503.0,2354.0
20.0,41.0,3.0,-28.0,-98.0,3231.0,2579.0,2507.0
-3.0,20.0,20.0,-11.0,-460.0,3199.0,2696.0,2754.0
4.0,39.0,2.0,-3.0,-138.0,3007.0,2755.0,3031.0
2.0,7.0,8.0,-5.0,497.0,2710.0,2890.0,3226.0
17.0,24.0,24.0,-2.0,920.0,2577.0,3168.0,3014.0
9.0,44.0,24.0,-13.0,1604.0,2450.0,3477.0,2348.0
18.0,47.0,46.0,-23.0,2254.0,2189.0,3734.0,1574.0
32.0,35.0,27.0,-10.0,3071.0,1864.0,3838.0,947.0
2.0,4.0,-6.0,-31.0,3346.0,1547.0,3791.0,426.0
6.0,-4.0,0.0,-21.0,3269.0,1397.0,3795.0,50.0
-11.0,-15.0,-11.0,-41.0,3281.0,1331.0,3903.0,-136.0
-6.0,6.0,-47.0,-77.0,2581.0,1323.0,4000.0,-414.0
-33.0,6.0,-20.0,-30.0,1352.0,1214.0,4000.0,-797.0
-26.0,9.0,-12.0,-39.0,414.0,945.0,4000.0,-1143.0
-17.0,0.0,-45.0,-49.0,46.0,628.0,4000.0,-1644.0
-29.0,2.0,-32.0,-39.0,302.0,325.0,4000.0,-2218.0
14.0,-4.0,-18.0,-17.0,1083.0,185.0,4000.0,-2747.0
8.0,-7.0,-35.0,-14.0,1657.0,152.0,4000.0,-3244.0
-4.0,-26.0,-30.0,-9.0,1842.0,28.0,4000.0,-3842.0
8.0,-28.0,-36.0,9.0,1482.0,-50.0,4000.0,-4000.0
-16.0,-36.0,-80.0,-28.0,1279.0,73.0,4000.0,-4000.0
-41.0,-40.0,-61.0,-22.0,1800.0,172.0,4000.0,-4000.0
-8.0,-3.0,-39.0,-7.0,1865.0,137.0,4000.0,-4000.0
-9.0,-43.0,-9.0,-38.0,1148.0,87.0,3905.0,-4000.0
-20.0,-34.0,-22.0,-21.0,-25.0,-84.0,3683.0,-4000.0
-16.0,-27.0,-15.0,2.0,-734.0,-234.0,3347.0,-4000.0
-11.0,-5.0,8.0,9.0,-1033.0,-378.0,2843.0,-4000.0
8.0,46.0,17.0,25.0,-2043.0,-550.0,2226.0,-4000.0
-2.0,-13.0,11.0,-4.0,-3327.0,-663.0,1667.0,-4000.0
-30.0,-43.0,-7.0,-5.0,-4000.0,-737.0,1223.0,-3760.0
-32.0,-22.0,4.0,10.0,-4000.0,-716.0,845.0,-3333.0
-18.0,10.0,-7.0,5.0,-3563.0,-663.0,529.0,-3060.0
-2.0,1.0,20.0,9.0,-3079.0,-663.0,217.0,-2543.0
-27.0,4.0,12.0,6.0,-2250.0,-783.0,-161.0,-2022.0
-19.0,22.0,0.0,6.0,-1398.0,-919.0,-527.0,-1788.0
6.0,7.0,5.0,1.0,-1439.0,-926.0,-680.0,-1658.0
-7.0,-5.0,-26.0,6.0,-1918.0,-926.0,-876.0,-1200.0
-24.0,-21.0,-8.0,-20.0,-2187.0,-939.0,-1128.0,-909.0
-25.0,-14.0,-5.0,-37.0,-1849.0,-920.0,-1108.0,-1115.0
-20.0,-17.0,-7.0,-19.0,-1398.0,-911.0,-1163.0,-1105.0
-28.0,-11.0,-30.0,-23.0,-1129.0,-838.0,-1488.0,-1065.0
-20.0,-11.0,-40.0,-6.0,-1463.0,-607.0,-1851.0,-1259.0
-6.0,-1.0,-16.0,-1.0,-3604.0,-505.0,-2353.0,-993.0
-18.0,-4.0,-11.0,-5.0,-4000.0,-591.0,-2858.0,-740.0
-16.0,0.0,6.0,-8.0,-4000.0,-570.0,-3261.0,-315.0
-6.0,1.0,-11.0,-26.0,-4000.0,-541.0,-3700.0,119.0
-20.0,-22.0,-6.0,0.0,-4000.0,-423.0,-4000.0,544.0
0.0,8.0,-9.0,-8.0,-4000.0,-318.0,-4000.0,851.0
6.0,34.0,-32.0,-19.0,-4000.0,-293.0,-4000.0,1057.0
4.0,23.0,5.0,-4.0,-4000.0,-211.0,-4000.0,1338.0
-15.0,14.0,9.0,-8.0,-4000.0,-84.0,-4000.0,1450.0
0.0,48.0,-13.0,-17.0,-4000.0,95.0,-4000.0,1859.0
12.0,38.0,2.0,-9.0,-4000.0,130.0,-4000.0,2119.0
-1.0,13.0,3.0,13.0,-4000.0,57.0,-3835.0,2313.0
-5.0,40.0,-19.0,1.0,-4000.0,48.0,-3390.0,2183.0
-19.0,32.0,9.0,13.0,-4000.0,103.0,-3041.0,1818.0
-28.0,3.0,-2.0,-2.0,-4000.0,256.0,-2855.0,1686.0
-31.0,2.0,9.0,-6.0,-4000.0,368.0,-2663.0,1384.0
0.0,20.0,7.0,34.0,-4000.0,522.0,-2405.0,1281.0
-13.0,9.0,13.0,12.0,-4000.0,620.0,-2172.0,1176.0
-28.0,-14.0,14.0,-21.0,-2931.0,641.0,-1990.0,1142.0
-21.0,-16.0,-21.0,-35.0,293.0,667.0,-1796.0,1541.0
-16.0,-1.0,-11.0,-25.0,3493.0,685.0,-1583.0,1633.0
0.0,13.0,-20.0,-14.0,4000.0,766.0,-1503.0,1242.0
7.0,23.0,17.0,-24.0,4000.0,822.0,-1665.0,890.0
1.0,12.0,16.0,-12.0,4000.0,896.0,-1853.0,677.0
4.0,37.0,-7.0,14.0,4000.0,988.0,-1950.0,601.0
-8.0,29.0,4.0,3.0,4000.0,1104.0,-1848.0,387.0
-8.0,29.0,8.0,8.0,4000.0,1189.0,-1625.0,349.0
7.0,54.0,-5.0,11.0,4000.0,1266.0,-1368.0,426.0
-1.0,39.0,-7.0,-12.0,4000.0,1385.0,-1006.0,331.0
15.0,13.0,0.0,-11.0,4000.0,1352.0,-642.0,326.0
3.0,0.0,-37.0,-30.0,4000.0,1352.0,-345.0,264.0
7.0,3.0,-19.0,-18.0,4000.0,1352.0,-119.0,319.0
30.0,-2.0,17.0,-34.0,4000.0,1344.0,34.0,424.0
-18.0,1.0,-9.0,-49.0,4000.0,1344.0,209.0,319.0
-27.0,-11.0,-29.0,-22.0,4000.0,1325.0,394.0,41.0
-19.0,7.0,-12.0,-22.0,4000.0,1269.0,597.0,76.0
-24.0,27.0,-9.0,-22.0,4000.0,1214.0,889.0,112.0
-17.0,34.0,-11.0,-19.0,4000.0,1179.0,1214.0,247.0
-29.0,21.0,2.0,-43.0,4000.0,1051.0,1444.0,851.0
-31.0,-15.0,-7.0,-51.0,4000.0,947.0,1554.0,825.0
-40.0,-30.0,-2.0,-36.0,3688.0,870.0,1667.0,261.0
-32.0,-59.0,-5.0,-39.0,3074.0,788.0,1734.0,-283.0
-14.0,-22.0,-19.0,-32.0,2842.0,687.0,1825.0,-1120.0
-4.0,-10.0,2.0,-14.0,2825.0,571.0,1931.0,-1497.0
3.0,-17.0,2.0,-10.0,3281.0,532.0,2061.0,-1506.0
21.0,-12.0,10.0,-23.0,3859.0,506.0,2190.0,-1390.0
31.0,-6.0,24.0,-49.0,4000.0,463.0,2244.0,-1148.0
12.0,1.0,9.0,-26.0,4000.0,457.0,2244.0,-1339.0
5.0,-18.0,9.0,-5.0,4000.0,432.0,2190.0,-1723.0
14.0,-7.0,10.0,10.0,4000.0,376.0,2114.0,-2650.0
-5.0,-19.0,-11.0,-10.0,4000.0,297.0,1996.0,-3645.0
-29.0,-47.0,-6.0,-2.0,4000.0,210.0,1919.0,-4000.0
9.0,-20.0,-6.0,7.0,4000.0,142.0,1843.0,-4000.0
5.0,30.0,-3.0,-49.0,4000.0,68.0,1757.0,-2893.0
8.0,38.0,7.0,-47.0,4000.0,7.0,1593.0,-1105.0
28.0,26.0,6.0,-64.0,4000.0,-108.0,1462.0,961.0
5.0,-1.0,23.0,-37.0,4000.0,-198.0,1333.0,2705.0
-5.0,-26.0,-1.0,-25.0,4000.0,-308.0,1199.0,4000.0
-35.0,-10.0,-2.0,-41.0,4000.0,-464.0,1084.0,4000.0
-28.0,4.0,13.0,-7.0,4000.0,-596.0,988.0,4000.0
-8.0,45.0,4.0,-20.0,4000.0,-745.0,954.0,4000.0
3.0,70.0,18.0,-4.0,4000.0,-867.0,889.0,4000.0
9.0,52.0,7.0,-5.0,4000.0,-1035.0,824.0,3910.0
0.0,58.0,0.0,16.0,4000.0,-1183.0,785.0,3457.0
9.0,73.0,13.0,37.0,4000.0,-1314.0,734.0,3067.0
15.0,73.0,-4.0,0.0,4000.0,-1437.0,684.0,2314.0
-12.0,34.0,-3.0,4.0,4000.0,-1526.0,637.0,2040.0
-39.0,-14.0,-2.0,-19.0,4000.0,-1672.0,619.0,1573.0
-20.0,-31.0,-27.0,10.0,4000.0,-1737.0,504.0,1006.0
-64.0,-46.0,-44.0,-4.0,4000.0,-1816.0,441.0,719.0
-59.0,-33.0,-38.0,-9.0,4000.0,-1912.0,407.0,695.0
-21.0,-11.0,-28.0,28.0,4000.0,-1977.0,311.0,1012.0
-23.0,-14.0,-31.0,12.0,4000.0,-2026.0,238.0,1177.0
-6.0,-15.0,-32.0,-5.0,4000.0,-2040.0,169.0,973.0
-19.0,-1.0,-11.0,-37.0,3529.0,-2091.0,124.0,781.0
-23.0,13.0,2.0,2.0,3399.0,-2054.0,94.0,576.0
-31.0,-2.0,0.0,-16.0,2842.0,-2054.0,35.0,550.0
-41.0,-29.0,-5.0,-25.0,2578.0,-1995.0,-69.0,961.0
-39.0,-50.0,8.0,-22.0,2321.0,-1896.0,-159.0,1372.0
-31.0,3.0,29.0,-31.0,1995.0,-1851.0,-224.0,1403.0
0.0,40.0,10.0,20.0,1644.0,-1753.0,-290.0,1003.0
7.0,20.0,16.0,-5.0,1097.0,-1669.0,-408.0,207.0
31.0,5.0,2.0,-39.0,882.0,-1550.0,-514.0,-787.0
12.0,1.0,-9.0,-18.0,542.0,-1440.0,-555.0,-1579.0
-18.0,-11.0,-6.0,-5.0,634.0,-1290.0,-651.0,-2395.0
-6.0,-22.0,-7.0,-38.0,556.0,-1127.0,-737.0,-3969.0
-7.0,-12.0,0.0,-31.0,837.0,-993.0,-794.0,-4000.0
-20.0,-5.0,-17.0,-28.0,1148.0,-816.0,-817.0,-4000.0
-29.0,-28.0,-15.0,-35.0,1254.0,-680.0,-855.0,-2959.0
-15.0,-30.0,-22.0,-37.0,1409.0,-565.0,-834.0,-1204.0
-9.0,-10.0,-28.0,-10.0,1142.0,-489.0,-811.0,-685.0
1.0,5.0,-32.0,19.0,933.0,-470.0,-855.0,-724.0
-10.0,8.0,-22.0,-33.0,664.0,-459.0,-852.0,-606.0
-21.0,9.0,-16.0,-16.0,253.0,-455.0,-817.0,-724.0
2.0,-18.0,-12.0,-8.0,-259.0,-507.0,-832.0,-521.0
-9.0,-24.0,3.0,-31.0,-659.0,-550.0,-797.0,41.0
-17.0,-30.0,-39.0,-53.0,-966.0,-586.0,-741.0,532.0
-12.0,-20.0,-31.0,-23.0,-1359.0,-613.0,-676.0,414.0
-10.0,1.0,-8.0,-23.0,-1455.0,-640.0,-620.0,187.0
-5.0,9.0,-30.0,-44.0,-1849.0,-685.0,-579.0,-69.0
-16.0,20.0,-31.0,-4.0,-2400.0,-712.0,-507.0,-134.0
-16.0,5.0,-21.0,-37.0,-2274.0,-750.0,-434.0,-113.0
-11.0,-14.0,-10.0,-31.0,-2224.0,-810.0,-350.0,-273.0
-15.0,-8.0,-10.0,-7.0,-2057.0,-845.0,-294.0,-136.0
10.0,34.0,-34.0,-42.0,-1685.0,-900.0,-216.0,-214.0
3.0,46.0,-31.0,-37.0,-1588.0,-945.0,-152.0,-622.0
7.0,3.0,-38.0,-38.0,-1595.0,-997.0,-84.0,-788.0
8.0,6.0,-45.0,-26.0,-1515.0,-1005.0,41.0,-627.0
-17.0,-12.0,-26.0,-22.0,-1377.0,-1042.0,120.0,-417.0
-8.0,12.0,-26.0,-16.0,-1589.0,-1031.0,171.0,-301.0
-44.0,6.0,-27.0,2.0,-1515.0,-1005.0,211.0,-257.0
-67.0,-36.0,-6.0,16.0,-1207.0,-1005.0,260.0,-96.0
-23.0,22.0,3.0,27.0,-1137.0,-976.0,335.0,47.0
-5.0,6.0,1.0,23.0,-1378.0,-920.0,359.0,-123.0
10.0,36.0,15.0,8.0,-2028.0,-890.0,380.0,-357.0
31.0,40.0,12.0,5.0,-2794.0,-861.0,403.0,-411.0
23.0,1.0,2.0,10.0,-3586.0,-802.0,413.0,-333.0
23.0,17.0,15.0,-3.0,-4000.0,-773.0,445.0,-256.0
41.0,17.0,8.0,-5.0,-4000.0,-810.0,445.0,-242.0
24.0,18.0,31.0,0.0,-4000.0,-856.0,464.0,-182.0
21.0,27.0,28.0,4.0,-4000.0,-923.0,445.0,-212.0
20.0,18.0,24.0,-16.0,-4000.0,-1005.0,439.0,-44.0
1.0,-4.0,12.0,-28.0,-4000.0,-1070.0,425.0,302.0
-1.0,25.0,-10.0,-17.0,-4000.0,-1121.0,367.0,503.0
-28.0,25.0,-4.0,-51.0,-4000.0,-1056.0,329.0,397.0
-6.0,-5.0,-11.0,-26.0,-4000.0,-786.0,303.0,249.0
-6.0,-16.0,7.0,-23.0,-4000.0,-334.0,283.0,332.0
-24.0,-15.0,21.0,-39.0,-4000.0,414.0,256.0,629.0
-4.0,-4.0,2.0,-48.0,-4000.0,1531.0,206.0,1142.0
-5.0,-5.0,10.0,-60.0,-4000.0,2888.0,185.0,1462.0
0.0,-19.0,17.0,-36.0,-4000.0,4000.0,151.0,1286.0
-29.0,5.0,-5.0,-21.0,-4000.0,4000.0,97.0,935.0
-15.0,8.0,3.0,-10.0,-4000.0,4000.0,60.0,660.0
-10.0,7.0,4.0,-3.0,-4000.0,4000.0,9.0,432.0
-10.0,52.0,15.0,13.0,-4000.0,4000.0,-6.0,462.0
7.0,34.0,-12.0,-1.0,-4000.0,4000.0,-12.0,465.0
-4.0,31.0,-1.0,18.0,-4000.0,4000.0,-40.0,586.0
18.0,30.0,40.0,13.0,-4000.0,4000.0,-17.0,808.0
3.0,10.0,37.0,26.0,-4000.0,4000.0,-21.0,941.0
6.0,4.0,30.0,40.0,-4000.0,4000.0,-37.0,1066.0
6.0,27.0,43.0,23.0,-4000.0,4000.0,-28.0,1077.0
21.0,45.0,49.0,35.0,-4000.0,4000.0,-50.0,1207.0
20.0,22.0,33.0,22.0,-4000.0,4000.0,-39.0,1085.0
7.0,34.0,31.0,29.0,-4000.0,4000.0,-45.0,988.0
29.0,47.0,6.0,40.0,-4000.0,3539.0,-68.0,1077.0
37.0,54.0,28.0,34.0,-3899.0,2836.0,-76.0,1006.0
2.0,54.0,21.0,0.0,-3640.0,2254.0,-144.0,817.0
-2.0,41.0,-19.0,-16.0,-3197.0,1734.0,-188.0,591.0
-11.0,28.0,11.0,4.0,-3172.0,1331.0,-184.0,564.0
-18.0,21.0,26.0,-6.0,-3042.0,791.0,-224.0,532.0
12.0,16.0,15.0,-28.0,-3148.0,78.0,-252.0,426.0
-20.0,-2.0,22.0,-47.0,-3001.0,-852.0,-266.0,450.0
-36.0,-22.0,-6.0,-39.0,-2159.0,-1896.0,-262.0,548.0
-39.0,-23.0,7.0,-53.0,-1814.0,-2884.0,-253.0,522.0
-7.0,-7.0,-8.0,-45.0,-1504.0,-3813.0,-287.0,58.0
-13.0,-18.0,-31.0,-59.0,-1588.0,-4000.0,-294.0,-427.0
-55.0,13.0,-18.0,-62.0,-1267.0,-4000.0,-273.0,-575.0
-44.0,18.0,-42.0,-51.0,-1250.0,-4000.0,-277.0,-348.0
-56.0,-7.0,-46.0,-41.0,-1318.0,-4000.0,-269.0,-39.0
-37.0,-22.0,-51.0,-28.0,-1012.0,-4000.0,-283.0,-78.0
-30.0,-38.0,-24.0,-25.0,-921.0,-4000.0,-240.0,-99.0
-34.0,-4.0,-3.0,-22.0,-698.0,-4000.0,-198.0,-191.0
-20.0,-22.0,-29.0,-37.0,-537.0,-4000.0,-217.0,-214.0
-41.0,-62.0,-24.0,-27.0,-547.0,-4000.0,-200.0,-45.0
-50.0,-39.0,-20.0,-32.0,-614.0,-4000.0,-167.0,159.0
-42.0,-27.0,-28.0,-8.0,-164.0,-4000.0,-123.0,304.0
-35.0,-55.0,-28.0,-22.0,-58.0,-4000.0,-117.0,218.0
-19.0,-33.0,-33.0,-17.0,78.0,-4000.0,-102.0,1.0
-10.0,-26.0,-18.0,-14.0,12.0,-4000.0,-59.0,-64.0
-27.0,-28.0,-14.0,-46.0,237.0,-4000.0,-71.0,-150.0
-14.0,-18.0,-33.0,-20.0,758.0,-4000.0,-49.0,-378.0
-26.0,-13.0,-34.0,-20.0,758.0,-3583.0,-5.0,-549.0
-41.0,-11.0,-23.0,-29.0,1070.0,-2992.0,-7.0,-627.0
-23.0,-13.0,-18.0,-8.0,1247.0,-2300.0,12.0,-492.0
1.0,-18.0,-29.0,-8.0,1759.0,-1607.0,1.0,-415.0
5.0,-19.0,-29.0,-8.0,2057.0,-1038.0,37.0,-191.0
-9.0,19.0,3.0,25.0,2243.0,-620.0,64.0,-79.0
2.0,-21.0,-15.0,5.0,2504.0,-333.0,45.0,-398.0
-25.0,-17.0,-10.0,-29.0,2360.0,-77.0,71.0,-492.0
-12.0,11.0,-6.0,-11.0,2491.0,131.0,56.0,-492.0
8.0,-30.0,-10.0,-12.0,2513.0,364.0,39.0,-301.0
-22.0,-1.0,4.0,21.0,2630.0,498.0,28.0,54.0
-9.0,34.0,2.0,81.0,3020.0,542.0,44.0,5.0
-13.0,12.0,18.0,337.0,2955.0,506.0,34.0,-246.0
8.0,23.0,-15.0,447.0,3085.0,329.0,50.0,-181.0
21.0,30.0,-4.0,46.0,3399.0,176.0,75.0,-39.0
-6.0,38.0,19.0,-181.0,3363.0,8.0,70.0,44.0
-4.0,34.0,-8.0,-263.0,3281.0,-240.0,107.0,-37.0
-31.0,14.0,16.0,-302.0,3102.0,-468.0,80.0,-221.0
-27.0,11.0,-8.0,-255.0,3074.0,-661.0,94.0,-177.0
-8.0,-10.0,-28.0,-265.0,2955.0,-780.0,76.0,-163.0
0.0,-25.0,-3.0,-206.0,3037.0,-852.0,34.0,-268.0
12.0,-18.0,1.0,-97.0,2882.0,-875.0,65.0,-443.0
4.0,13.0,-17.0,112.0,3102.0,-932.0,59.0,-484.0
-18.0,9.0,-28.0,29.0,3541.0,-940.0,56.0,-419.0
-13.0,13.0,-10.0,-11.0,3662.0,-867.0,70.0,-419.0
-17.0,27.0,-3.0,81.0,3733.0,-816.0,78.0,-549.0
-25.0,25.0,-6.0,11.0,3606.0,-710.0,83.0,-618.0
-20.0,2.0,-16.0,59.0,3476.0,-550.0,95.0,-540.0
9.0,0.0,-33.0,50.0,3085.0,-459.0,93.0,-514.0
17.0,48.0,-15.0,81.0,2955.0,-411.0,113.0,-398.0
26.0,58.0,3.0,109.0,2745.0,-342.0,141.0,-305.0
36.0,67.0,10.0,30.0,2630.0,-247.0,92.0,-557.0
9.0,45.0,14.0,-68.0,2425.0,-144.0,67.0,-744.0
1.0,49.0,8.0,1.0,2320.0,-116.0,69.0,-602.0
4.0,30.0,24.0,64.0,2581.0,-212.0,59.0,-177.0
2.0,-12.0,20.0,-8.0,2485.0,-249.0,40.0,187.0
1.0,-11.0,-9.0,-123.0,2516.0,-346.0,61.0,-36.0
24.0,27.0,-32.0,-196.0,2451.0,-479.0,83.0,-417.0
16.0,37.0,-6.0,-155.0,2320.0,-645.0,54.0,-480.0
-3.0,-7.0,-9.0,-182.0,2254.0,-661.0,17.0,-346.0
6.0,-18.0,-10.0,-143.0,2124.0,-28.0,13.0,-140.0
-9.0,-35.0,-13.0,-102.0,1966.0,1018.0,15.0,76.0
-12.0,-11.0,-6.0,-71.0,1865.0,1969.0,-20.0,157.0
-20.0,-20.0,11.0,-19.0,1930.0,2812.0,-3.0,241.0
9.0,-27.0,7.0,7.0,1865.0,3539.0,-22.0,286.0
15.0,-1.0,11.0,16.0,1775.0,4000.0,-43.0,308.0
-10.0,-20.0,-12.0,-5.0,1734.0,4000.0,-11.0,283.0
0.0,-2.0,-11.0,40.0,1669.0,4000.0,-24.0,149.0
-18.0,0.0,6.0,43.0,1509.0,4000.0,-23.0,230.0
-28.0,-5.0,37.0,45.0,1379.0,4000.0,-5.0,267.0
-36.0,11.0,18.0,69.0,1148.0,4000.0,-5.0,196.0
-16.0,20.0,11.0,81.0,831.0,4000.0,-14.0,87.0
-36.0,-10.0,-7.0,59.0,719.0,4000.0,-20.0,55.0
-39.0,11.0,-19.0,38.0,454.0,4000.0,-29.0,220.0
-27.0,52.0,2.0,33.0,-3.0,4000.0,-31.0,141.0
-14.0,4.0,-9.0,40.0,-380.0,4000.0,-40.0,43.0
1.0,5.0,24.0,63.0,-596.0,4000.0,-30.0,30.0
5.0,34.0,-8.0,33.0,-934.0,4000.0,-31.0,71.0
18.0,13.0,-6.0,12.0,-1685.0,4000.0,-33.0,104.0
-6.0,-3.0,24.0,4.0,-2212.0,4000.0,-13.0,199.0
1.0,-39.0,-3.0,5.0,-2354.0,4000.0,-11.0,229.0
-14.0,-45.0,-9.0,-20.0,-2248.0,3463.0,1.0,122.0
-6.0,-15.0,-12.0,-28.0,-1919.0,2940.0,-26.0,210.0
-3.0,-16.0,9.0,-25.0,-1797.0,2254.0,-37.0,239.0
2.0,22.0,-10.0,-44.0,-1805.0,1644.0,-29.0,267.0
4.0,7.0,-33.0,-22.0,-1649.0,1083.0,-44.0,294.0
-13.0,-42.0,-22.0,-40.0,-1463.0,425.0,-45.0,290.0
1.0,-37.0,0.0,-26.0,-1649.0,-123.0,-47.0,258.0
-26.0,-44.0,-20.0,-14.0,-2224.0,-459.0,-11.0,223.0
4.0,6.0,-11.0,-3.0,-2866.0,-1096.0,17.0,252.0
12.0,1.0,-3.0,15.0,-3107.0,-1669.0,-17.0,236.0
-14.0,-19.0,-20.0,-21.0,-2341.0,-1850.0,-28.0,195.0
1.0,2.0,-16.0,-34.0,-1665.0,-2063.0,-42.0,148.0
-12.0,3.0,-29.0,-53.0,-967.0,-1916.0,-52.0,127.0
-14.0,41.0,-30.0,-61.0,823.0,-1975.0,-42.0,107.0
-36.0,14.0,-25.0,-49.0,2363.0,-2431.0,-37.0,98.0
-29.0,-13.0,-27.0,-63.0,2955.0,-2592.0,-35.0,58.0
-44.0,-11.0,-32.0,-88.0,3747.0,-2856.0,-58.0,42.0
-54.0,-11.0,-31.0,-66.0,4000.0,-3048.0,-45.0,29.0
-17.0,-20.0,-37.0,-50.0,4000.0,-3128.0,-39.0,-32.0
-39.0,-38.0,-17.0,-39.0,4000.0,-3181.0,-19.0,-27.0
-18.0,-49.0,-6.0,-36.0,4000.0,-2998.0,8.0,-39.0
-15.0,-38.0,-20.0,-74.0,4000.0,-3169.0,10.0,-65.0
-8.0,-20.0,-20.0,-75.0,4000.0,-3275.0,15.0,-61.0
4.0,-16.0,10.0,-69.0,4000.0,-2932.0,8.0,-67.0
-21.0,3.0,14.0,-39.0,4000.0,-2620.0,50.0,-80.0
-24.0,-12.0,-11.0,0.0,3363.0,-2469.0,29.0,-100.0
-17.0,-12.0,-22.0,-1.0,2943.0,-2418.0,29.0,-92.0
-13.0,-16.0,3.0,11.0,2491.0,-2397.0,70.0,-82.0
8.0,11.0,0.0,13.0,2060.0,-2156.0,81.0,-85.0
15.0,36.0,3.0,-3.0,1314.0,-2091.0,76.0,-64.0
-1.0,22.0,17.0,19.0,549.0,-1896.0,56.0,-76.0
7.0,48.0,-1.0,39.0,36.0,-1623.0,72.0,-92.0
3.0,40.0,2.0,15.0,-192.0,-1597.0,82.0,-70.0
-4.0,32.0,7.0,36.0,-209.0,-1396.0,83.0,-91.0
17.0,40.0,12.0,30.0,-319.0,-1311.0,76.0,-119.0
26.0,37.0,10.0,12.0,-417.0,-1302.0,51.0,-89.0
24.0,17.0,18.0,23.0,-146.0,-1140.0,62.0,-83.0
12.0,20.0,40.0,9.0,308.0,-1062.0,79.0,-42.0
14.0,26.0,24.0,-5.0,122.0,-881.0,83.0,-33.0
30.0,33.0,26.0,-8.0,-174.0,-580.0,83.0,-62.0
39.0,75.0,38.0,13.0,-1077.0,-498.0,93.0,-32.0
34.0,69.0,8.0,20.0,-1919.0,-556.0,61.0,1.0
22.0,40.0,-5.0,15.0,-2250.0,-517.0,40.0,5.0
16.0,28.0,2.0,-8.0,-2924.0,-332.0,45.0,-17.0
10.0,47.0,-7.0,-39.0,-3172.0,-238.0,37.0,-24.0
-11.0,11.0,-22.0,-41.0,-3507.0,-532.0,46.0,-50.0
-34.0,-33.0,-25.0,-87.0,-3985.0,-846.0,34.0,-33.0
-25.0,1.0,-21.0,-72.0,-4000.0,-743.0,42.0,-46.0
-26.0,10.0,-8.0,-31.0,-4000.0,-383.0,44.0,-41.0
2.0,17.0,0.0,-72.0,-4000.0,-394.0,54.0,-30.0
8.0,33.0,28.0,-44.0,-4000.0,-663.0,56.0,-70.0
-10.0,55.0,26.0,-11.0,-4000.0,-731.0,42.0,-92.0
2.0,41.0,30.0,-2.0,-3963.0,-630.0,59.0,-156.0
-12.0,19.0,37.0,28.0,-3899.0,-306.0,42.0,-138.0
-25.0,21.0,24.0,36.0,-3521.0,-227.0,49.0,-146.0
-28.0,13.0,24.0,41.0,-3262.0,-247.0,48.0,-155.0
-10.0,-19.0,-34.0,24.0,-3982.0,-358.0,65.0,-153.0
-21.0,-10.0,-47.0,1.0,-4000.0,-521.0,75.0,-170.0
-47.0,0.0,-23.0,7.0,-4000.0,-238.0,78.0,-164.0
-24.0,-30.0,-36.0,-48.0,-4000.0,-169.0,61.0,-193.0
-29.0,-34.0,-38.0,-83.0,-4000.0,-379.0,43.0,-189.0
-34.0,-49.0,-41.0,-86.0,-4000.0,-532.0,67.0,-142.0
-17.0,-44.0,-54.0,-86.0,-4000.0,-594.0,28.0,-97.0
-42.0,-45.0,-32.0,-60.0,-4000.0,-576.0,30.0,-79.0
-49.0,-35.0,-15.0,-86.0,-3661.0,-630.0,44.0,-31.0
-38.0,-22.0,-32.0,-67.0,-3018.0,-620.0,43.0,-20.0
-44.0,-38.0,-39.0,-56.0,-1304.0,-526.0,21.0,-27.0
-29.0,-29.0,-48.0,-49.0,-751.0,-485.0,25.0,-2.0
-54.0,-22.0,-11.0,6.0,-200.0,-485.0,31.0,-5.0
-47.0,-22.0,-1.0,16.0,114.0,-501.0,33.0,1.0
-39.0,-31.0,-25.0,26.0,-64.0,-499.0,46.0,74.0
-21.0,-10.0,1.0,30.0,556.0,-485.0,19.0,98.0
2.0,-22.0,4.0,34.0,1134.0,-499.0,27.0,67.0
-4.0,-44.0,-23.0,28.0,1644.0,-446.0,25.0,74.0
-15.0,-43.0,-20.0,38.0,2745.0,-463.0,1.0,69.0
-5.0,-13.0,-1.0,26.0,3428.0,-526.0,-14.0,26.0
-4.0,7.0,-20.0,10.0,3102.0,-620.0,-1.0,-93.0
-1.0,9.0,-6.0,6.0,4000.0,-731.0,-1.0,-131.0
6.0,40.0,23.0,10.0,4000.0,-810.0,19.0,-128.0
18.0,17.0,-2.0,10.0,4000.0,-881.0,19.0,-133.0
37.0,26.0,36.0,-39.0,4000.0,-965.0,6.0,-81.0
19.0,34.0,35.0,-37.0,4000.0,-940.0,20.0,-88.0
9.0,22.0,1.0,-3.0,4000.0,-940.0,25.0,-59.0
25.0,33.0,7.0,5.0,4000.0,-989.0,41.0,-52.0
11.0,30.0,-4.0,-2.0,4000.0,-940.0,19.0,-23.0
5.0,16.0,-13.0,-2.0,4000.0,-932.0,31.0,33.0
17.0,1.0,24.0,34.0,4000.0,-917.0,59.0,-5.0
-6.0,10.0,18.0,19.0,4000.0,-965.0,35.0,-74.0
2.0,36.0,3.0,35.0,4000.0,-932.0,54.0,-92.0
25.0,40.0,47.0,75.0,4000.0,-802.0,54.0,-89.0
16.0,32.0,36.0,63.0,4000.0,-743.0,46.0,-124.0
16.0,48.0,6.0,34.0,4000.0,-635.0,29.0,-153.0
14.0,57.0,-12.0,-2.0,4000.0,-532.0,5.0,-166.0
24.0,64.0,14.0,22.0,4000.0,-448.0,15.0,-118.0
13.0,75.0,6.0,34.0,4000.0,-416.0,-18.0,-155.0
-15.0,49.0,-30.0,26.0,4000.0,-352.0,-8.0,-131.0
-1.0,44.0,-15.0,15.0,3859.0,-253.0,28.0,-105.0
-27.0,18.0,-24.0,20.0,2943.0,-179.0,14.0,-142.0
-32.0,-10.0,-3.0,10.0,896.0,-51.0,16.0,-122.0
-29.0,-16.0,-2.0,-9.0,-502.0,68.0,-3.0,-124.0
-39.0,-27.0,1.0,6.0,-928.0,129.0,-14.0,-91.0
-16.0,-32.0,-9.0,-32.0,-2075.0,175.0,-15.0,-95.0
-36.0,-53.0,-21.0,-69.0,-3982.0,243.0,-25.0,-83.0
-23.0,-50.0,-23.0,-88.0,-4000.0,341.0,-14.0,-45.0
-16.0,-42.0,-21.0,-137.0,-4000.0,386.0,-33.0,-35.0
-14.0,-16.0,-7.0,-198.0,-4000.0,389.0,-19.0,-81.0
0.0,-10.0,-17.0,-218.0,-4000.0,463.0,-26.0,-128.0
-35.0,-21.0,-11.0,-198.0,-4000.0,445.0,-40.0,-111.0
-28.0,-7.0,-29.0,-146.0,-4000.0,268.0,-8.0,-36.0
-24.0,-26.0,-31.0,-66.0,-4000.0,260.0,-6.0,-16.0
-16.0,-11.0,-27.0,-23.0,-4000.0,349.0,21.0,10.0
-3.0,-6.0,-30.0,4.0,-4000.0,404.0,12.0,36.0
-7.0,-1.0,-31.0,16.0,-4000.0,467.0,22.0,28.0
-33.0,-19.0,-28.0,13.0,-4000.0,415.0,54.0,83.0
-33.0,-66.0,6.0,12.0,-4000.0,315.0,41.0,83.0
-17.0,-17.0,-10.0,1.0,-4000.0,270.0,85.0,90.0
-18.0,-12.0,-39.0,1.0,-4000.0,268.0,94.0,107.0
-6.0,-16.0,-12.0,1.0,-4000.0,274.0,93.0,120.0
-7.0,-29.0,-3.0,0.0,-4000.0,171.0,76.0,131.0
-3.0,-19.0,-16.0,15.0,-4000.0,105.0,77.0,159.0
-9.0,5.0,-10.0,-16.0,-4000.0,115.0,78.0,178.0
-1.0,-10.0,18.0,-53.0,-4000.0,81.0,76.0,174.0
12.0,16.0,-3.0,-47.0,-4000.0,56.0,98.0,190.0
2.0,13.0,-6.0,-14.0,-4000.0,42.0,85.0,210.0
-8.0,17.0,-8.0,-29.0,-4000.0,35.0,103.0,206.0
4.0,10.0,-28.0,-31.0,-4000.0,-12.0,88.0,224.0
-13.0,7.0,-11.0,-13.0,-4000.0,-78.0,93.0,230.0
-23.0,-8.0,-7.0,-36.0,-4000.0,-107.0,98.0,238.0
-17.0,-13.0,-11.0,-34.0,-3213.0,-54.0,99.0,227.0
-30.0,-4.0,9.0,18.0,-1528.0,-17.0,107.0,221.0
-12.0,-1.0,31.0,27.0,100.0,-56.0,120.0,235.0
18.0,4.0,14.0,22.0,1488.0,-37.0,110.0,196.0
-7.0,6.0,11.0,13.0,3410.0,-52.0,93.0,196.0
-11.0,36.0,15.0,24.0,4000.0,-17.0,102.0,193.0
-1.0,26.0,15.0,42.0,4000.0,89.0,105.0,187.0
-9.0,37.0,13.0,24.0,4000.0,115.0,132.0,188.0
14.0,33.0,43.0,68.0,4000.0,183.0,149.0,161.0
10.0,57.0,33.0,63.0,4000.0,216.0,126.0,112.0
5.0,48.0,11.0,59.0,4000.0,183.0,76.0,68.0
15.0,34.0,45.0,84.0,4000.0,102.0,81.0,74.0
17.0,56.0,26.0,60.0,4000.0,8.0,74.0,77.0
9.0,24.0,26.0,34.0,4000.0,-22.0,50.0,116.0
8.0,16.0,37.0,13.0,4000.0,-71.0,37.0,148.0
24.0,22.0,23.0,4.0,4000.0,-111.0,17.0,151.0
17.0,25.0,2.0,-21.0,4000.0,-82.0,45.0,134.0
0.0,24.0,-8.0,-6.0,4000.0,127.0,41.0,84.0
-2.0,30.0,-11.0,-41.0,3916.0,390.0,16.0,80.0
-3.0,12.0,-44.0,-69.0,3140.0,480.0,12.0,56.0
-10.0,20.0,-46.0,-70.0,3215.0,595.0,10.0,43.0
-38.0,18.0,-44.0,-79.0,3150.0,664.0,2.0,47.0
-35.0,10.0,-28.0,-55.0,2578.0,706.0,6.0,13.0
-50.0,1.0,-26.0,-55.0,1547.0,831.0,-11.0,6.0
-42.0,2.0,-45.0,-42.0,1710.0,888.0,-24.0,63.0
-24.0,7.0,-8.0,-33.0,2046.0,947.0,-42.0,51.0
-49.0,-16.0,-2.0,-2.0,1604.0,953.0,-39.0,-10.0
-33.0,4.0,28.0,-25.0,1075.0,953.0,-29.0,-15.0
-41.0,23.0,7.0,-37.0,390.0,929.0,-32.0,17.0
-39.0,4.0,-34.0,-16.0,1213.0,909.0,-19.0,72.0
-32.0,1.0,-14.0,3.0,1312.0,994.0,-35.0,132.0
-38.0,-13.0,-26.0,22.0,1006.0,1018.0,-44.0,100.0
-29.0,-18.0,-14.0,-18.0,1539.0,1059.0,-50.0,66.0
-36.0,-17.0,-60.0,-106.0,1287.0,1075.0,-49.0,97.0
-10.0,-20.0,-32.0,-90.0,1003.0,1063.0,-71.0,60.0
-24.0,-32.0,4.0,-72.0,692.0,994.0,-93.0,9.0
-27.0,-16.0,-60.0,-119.0,-261.0,888.0,-84.0,-45.0
10.0,-4.0,-2.0,-94.0,-1052.0,853.0,-101.0,-111.0
-9.0,-19.0,-14.0,-79.0,-1072.0,837.0,-85.0,-89.0
-33.0,-3.0,-29.0,-19.0,-834.0,887.0,-79.0,-29.0
-8.0,15.0,-15.0,-3.0,-763.0,896.0,-53.0,-60.0
1.0,19.0,-1.0,-1.0,-665.0,921.0,-51.0,-15.0
-3.0,3.0,6.0,42.0,-788.0,713.0,-54.0,65.0
0.0,4.0,-28.0,7.0,-501.0,506.0,-24.0,65.0
-7.0,-14.0,-14.0,-15.0,-416.0,420.0,-33.0,25.0
-7.0,-26.0,-39.0,1.0,-860.0,336.0,-23.0,-24.0
12.0,-5.0,-42.0,-4.0,-753.0,311.0,-33.0,-9.0
0.0,-5.0,-33.0,-32.0,-812.0,329.0,-46.0,111.0
15.0,-12.0,-17.0,-63.0,-1007.0,441.0,-46.0,151.0
4.0,-18.0,1.0,-57.0,-1137.0,522.0,-41.0,112.0
13.0,-10.0,-1.0,-2.0,-1207.0,592.0,-54.0,66.0
16.0,0.0,11.0,28.0,-1369.0,592.0,-69.0,38.0
-5.0,-10.0,15.0,20.0,-1318.0,628.0,-67.0,20.0
-4.0,-8.0,12.0,23.0,-1385.0,659.0,-84.0,-97.0
-1.0,0.0,30.0,40.0,-1313.0,734.0,-73.0,-108.0
14.0,16.0,15.0,31.0,-734.0,880.0,-82.0,-89.0
9.0,38.0,-5.0,-20.0,-556.0,941.0,-93.0,-53.0
10.0,15.0,0.0,-21.0,-349.0,1062.0,-84.0,23.0
4.0,20.0,1.0,-13.0,-324.0,1157.0,-55.0,104.0
6.0,40.0,-2.0,-33.0,-163.0,1201.0,-60.0,108.0
21.0,20.0,-1.0,-15.0,522.0,1222.0,-53.0,141.0
-20.0,10.0,33.0,-17.0,1009.0,1266.0,-30.0,276.0
-18.0,-8.0,18.0,-15.0,1069.0,1266.0,-19.0,312.0
-10.0,5.0,11.0,13.0,1574.0,1329.0,-22.0,295.0
-13.0,8.0,2.0,-7.0,2113.0,1344.0,-27.0,203.0
5.0,13.0,-5.0,-14.0,2160.0,1340.0,8.0,190.0
-6.0,56.0,14.0,-14.0,2772.0,1405.0,25.0,55.0
-5.0,74.0,12.0,-3.0,3102.0,1390.0,22.0,35.0
4.0,45.0,7.0,20.0,3102.0,1273.0,34.0,312.0
0.0,37.0,3.0,11.0,2819.0,1222.0,59.0,438.0
-12.0,40.0,18.0,12.0,2243.0,1292.0,103.0,482.0
3.0,60.0,18.0,23.0,2124.0,1409.0,143.0,386.0
10.0,56.0,34.0,26.0,2439.0,1604.0,152.0,87.0
11.0,50.0,17.0,30.0,2630.0,1787.0,155.0,-268.0
14.0,30.0,31.0,27.0,2321.0,1775.0,155.0,-370.0
9.0,14.0,35.0,25.0,2441.0,1722.0,154.0,-492.0
19.0,23.0,6.0,12.0,2057.0,1734.0,135.0,-687.0
1.0,-53.0,20.0,3.0,887.0,1704.0,137.0,-467.0
-1.0,-86.0,-10.0,12.0,-677.0,1657.0,164.0,2.0
15.0,-95.0,17.0,27.0,-1588.0,1721.0,189.0,277.0
9.0,-65.0,38.0,25.0,-409.0,1722.0,217.0,200.0
14.0,-38.0,12.0,22.0,212.0,1710.0,259.0,14.0
-7.0,-66.0,18.0,15.0,-862.0,1626.0,307.0,39.0
-15.0,-51.0,10.0,-22.0,-2676.0,1525.0,343.0,-147.0
-15.0,-30.0,-8.0,-38.0,-4000.0,1352.0,319.0,-284.0
-27.0,-23.0,-6.0,-51.0,-4000.0,1118.0,246.0,-15.0
-27.0,-26.0,-12.0,-72.0,-4000.0,805.0,193.0,73.0
-51.0,-56.0,-24.0,-69.0,-4000.0,445.0,133.0,358.0
-54.0,-89.0,-4.0,-61.0,-4000.0,34.0,-5.0,515.0
-40.0,-111.0,-21.0,-72.0,-2922.0,-428.0,-187.0,-70.0
-15.0,-113.0,-20.0,-39.0,-3001.0,-945.0,-290.0,-333.0
-28.0,-79.0,-16.0,-12.0,-4000.0,-1489.0,-340.0,-281.0
-13.0,-53.0,-27.0,-15.0,-4000.0,-2073.0,-377.0,196.0
11.0,1.0,-9.0,2.0,-4000.0,-2608.0,-359.0,955.0
-4.0,25.0,-15.0,3.0,-4000.0,-3104.0,-336.0,804.0
6.0,33.0,-29.0,-17.0,-4000.0,-3571.0,-290.0,122.0
3.0,24.0,-31.0,-7.0,-4000.0,-3925.0,-209.0,-523.0
1.0,21.0,-14.0,-32.0,-4000.0,-4000.0,-143.0,-671.0
14.0,28.0,-36.0,-52.0,-3753.0,-4000.0,-69.0,-605.0
3.0,20.0,-31.0,-61.0,-3237.0,-4000.0,25.0,-580.0
-1.0,18.0,-34.0,-76.0,-2822.0,-4000.0,133.0,-650.0
-15.0,19.0,-29.0,-48.0,-2688.0,-4000.0,254.0,-1018.0
-32.0,32.0,-14.0,-20.0,-2537.0,-4000.0,349.0,-1274.0
-21.0,26.0,6.0,-15.0,-1424.0,-3864.0,404.0,-1339.0
3.0,33.0,20.0,-1.0,-863.0,-3583.0,510.0,-1062.0
8.0,58.0,0.0,-10.0,-1384.0,-3308.0,667.0,-862.0
-7.0,39.0,12.0,-24.0,-2079.0,-2932.0,858.0,-924.0
-29.0,34.0,-36.0,-56.0,-1263.0,-2558.0,1076.0,-883.0
-29.0,43.0,-57.0,-60.0,-49.0,-2286.0,1288.0,-818.0
-11.0,28.0,-13.0,-2.0,354.0,-1976.0,1575.0,-730.0
-5.0,40.0,-13.0,-15.0,668.0,-1699.0,1801.0,-605.0
-7.0,25.0,-21.0,-15.0,1800.0,-1396.0,1931.0,-353.0
-24.0,-1.0,-32.0,-16.0,4000.0,-1135.0,2037.0,-7.0
-21.0,-12.0,-32.0,-18.0,4000.0,-940.0,2125.0,319.0
-17.0,-29.0,-17.0,0.0,4000.0,-729.0,2242.0,695.0
-35.0,-29.0,-15.0,-2.0,4000.0,-607.0,2255.0,1003.0
-21.0,-50.0,-3.0,-28.0,4000.0,-415.0,2255.0,1187.0
-26.0,-50.0,-10.0,-34.0,4000.0,-262.0,2255.0,1382.0
-24.0,-26.0,-18.0,-19.0,4000.0,-185.0,2255.0,1574.0
-14.0,-32.0,-17.0,-43.0,4000.0,-58.0,2225.0,1818.0
-23.0,-15.0,-22.0,-44.0,4000.0,49.0,2049.0,2119.0
14.0,6.0,-4.0,-38.0,4000.0,170.0,1769.0,2510.0
28.0,11.0,2.0,-21.0,4000.0,294.0,1410.0,2948.0
3.0,16.0,-1.0,-17.0,4000.0,376.0,1013.0,3226.0
9.0,36.0,0.0,6.0,4000.0,427.0,510.0,3404.0
-3.0,42.0,-3.0,12.0,4000.0,457.0,-399.0,3469.0
4.0,66.0,-24.0,3.0,4000.0,506.0,-1716.0,3422.0
2.0,77.0,-18.0,45.0,4000.0,599.0,-3311.0,3469.0
1.0,44.0,-6.0,27.0,4000.0,641.0,-4000.0,3523.0
7.0,51.0,12.0,36.0,4000.0,641.0,-4000.0,3457.0
-15.0,54.0,10.0,26.0,4000.0,673.0,-4000.0,3145.0
-27.0,51.0,-24.0,11.0,4000.0,628.0,-4000.0,2563.0
-33.0,44.0,-12.0,-6.0,4000.0,620.0,-4000.0,1846.0
-49.0,11.0,-17.0,-40.0,4000.0,660.0,-4000.0,1118.0
-52.0,27.0,-24.0,-16.0,4000.0,660.0,-4000.0,377.0
-42.0,30.0,-1.0,-20.0,3208.0,706.0,-4000.0,-193.0
-37.0,23.0,3.0,-30.0,1722.0,823.0,-4000.0,-862.0
-29.0,17.0,5.0,-29.0,1352.0,967.0,-4000.0,-1921.0
-32.0,10.0,13.0,-33.0,929.0,961.0,-2405.0,-3020.0
-16.0,40.0,3.0,-26.0,-383.0,817.0,-768.0,-4000.0
-25.0,14.0,-5.0,-33.0,-2147.0,788.0,857.0,-4000.0
-15.0,7.0,-4.0,-53.0,-4000.0,722.0,2297.0,-4000.0
4.0,18.0,-17.0,-21.0,-4000.0,659.0,3494.0,-4000.0
-24.0,12.0,-8.0,-15.0,-4000.0,589.0,4000.0,-4000.0
-22.0,20.0,-26.0,-33.0,-4000.0,457.0,4000.0,-3634.0
-23.0,-8.0,-11.0,-11.0,-4000.0,463.0,4000.0,-1859.0
-26.0,-10.0,-5.0,-34.0,-4000.0,490.0,4000.0,174.0
-14.0,-10.0,-14.0,-21.0,-4000.0,473.0,4000.0,1989.0
-17.0,-4.0,-12.0,-4.0,-4000.0,432.0,4000.0,3144.0
-4.0,-1.0,-41.0,-6.0,-4000.0,415.0,1640.0,3340.0
1.0,5.0,-29.0,-2.0,-4000.0,376.0,-3445.0,2689.0
-19.0,-24.0,-30.0,23.0,-4000.0,358.0,-4000.0,1963.0
-8.0,-32.0,-49.0,37.0,-4000.0,376.0,-4000.0,1502.0
-13.0,-8.0,-39.0,9.0,-4000.0,376.0,-4000.0,1252.0
-21.0,-28.0,-22.0,4.0,-4000.0,368.0,-4000.0,1476.0
-4.0,-41.0,-56.0,-12.0,-4000.0,301.0,-1801.0,1924.0
12.0,-56.0,-68.0,10.0,-4000.0,311.0,1539.0,2172.0
27.0,-44.0,-64.0,1.0,-4000.0,311.0,3669.0,1818.0
0.0,-26.0,-77.0,-20.0,-4000.0,278.0,3917.0,1309.0
-18.0,-7.0,-62.0,-33.0,-3982.0,286.0,3151.0,331.0
7.0,-4.0,-30.0,-31.0,-3689.0,265.0,3876.0,-1061.0
17.0,-17.0,11.0,-9.0,-3001.0,286.0,4000.0,-1921.0
13.0,19.0,33.0,-2.0,-2664.0,286.0,4000.0,-2682.0
15.0,19.0,52.0,16.0,-2145.0,289.0,4000.0,-3333.0
15.0,8.0,42.0,23.0,-1685.0,327.0,4000.0,-3824.0
25.0,20.0,42.0,9.0,-1163.0,319.0,4000.0,-4000.0
39.0,9.0,24.0,-1.0,-883.0,347.0,2166.0,-4000.0
64.0,12.0,27.0,17.0,-728.0,376.0,772.0,-4000.0
55.0,37.0,70.0,34.0,-188.0,404.0,742.0,-4000.0
49.0,8.0,48.0,18.0,49.0,412.0,1475.0,-4000.0
51.0,-22.0,59.0,-19.0,310.0,394.0,1776.0,-4000.0
21.0,-15.0,73.0,-61.0,751.0,380.0,628.0,-4000.0
17.0,-13.0,89.0,-66.0,1330.0,384.0,-1011.0,-4000.0
12.0,-12.0,68.0,-72.0,1539.0,346.0,-1834.0,-4000.0
3.0,-21.0,71.0,-77.0,1466.0,311.0,-1507.0,-4000.0
-24.0,-34.0,105.0,-103.0,1533.0,283.0,-774.0,-4000.0
-53.0,-47.0,75.0,-112.0,1266.0,177.0,-550.0,-4000.0
-25.0,-34.0,83.0,-145.0,947.0,75.0,-1006.0,-3988.0
-46.0,-47.0,100.0,-171.0,489.0,-5.0,-1454.0,-3449.0
-31.0,-16.0,113.0,-137.0,220.0,-85.0,-1822.0,-2995.0
-25.0,20.0,104.0,-143.0,98.0,-113.0,-2080.0,-2491.0
-15.0,21.0,103.0,-113.0,216.0,-51.0,-2062.0,-1856.0
14.0,56.0,134.0,-69.0,489.0,-73.0,-2144.0,-1055.0
-4.0,45.0,100.0,-81.0,335.0,-146.0,-2093.0,-121.0
0.0,34.0,69.0,-59.0,415.0,-188.0,-2376.0,918.0
-35.0,60.0,61.0,-45.0,428.0,-204.0,-2597.0,1780.0
-26.0,63.0,14.0,-41.0,253.0,-207.0,-2311.0,2302.0
-8.0,52.0,-3.0,-31.0,-99.0,-207.0,-1853.0,2510.0
-42.0,60.0,-7.0,-24.0,-534.0,-175.0,-1652.0,2754.0
-54.0,51.0,-42.0,9.0,-1036.0,-159.0,-1497.0,3014.0
-44.0,37.0,-71.0,23.0,-1489.0,-169.0,-1201.0,3079.0
-36.0,11.0,-78.0,22.0,-1888.0,-141.0,-811.0,3096.0
-35.0,18.0,-85.0,33.0,-2598.0,-80.0,-212.0,2901.0
-13.0,30.0,-80.0,59.0,-3433.0,-24.0,-320.0,2498.0
-39.0,16.0,-95.0,75.0,-4000.0,6.0,-711.0,1859.0
-39.0,30.0,-126.0,59.0,-4000.0,34.0,-901.0,1182.0
3.0,37.0,-90.0,61.0,-4000.0,91.0,-933.0,465.0
-9.0,28.0,-113.0,42.0,-3917.0,144.0,-652.0,-73.0
-9.0,14.0,-145.0,20.0,-3262.0,172.0,-472.0,-305.0
-20.0,10.0,-145.0,20.0,-2354.0,243.0,-198.0,-431.0
-11.0,18.0,-144.0,25.0,-1488.0,284.0,-145.0,-466.0
0.0,52.0,-110.0,33.0,-621.0,303.0,-281.0,-391.0
-10.0,34.0,-116.0,32.0,36.0,337.0,-138.0,-114.0
-8.0,-3.0,-110.0,25.0,719.0,374.0,-163.0,269.0
-26.0,1.0,-102.0,9.0,1462.0,380.0,-25.0,805.0
-23.0,9.0,-93.0,-4.0,1786.0,408.0,256.0,1403.0
-20.0,8.0,-82.0,-7.0,2955.0,468.0,341.0,1924.0
-6.0,-10.0,-95.0,13.0,3334.0,441.0,197.0,2094.0
-23.0,-21.0,-86.0,12.0,2760.0,408.0,-255.0,1836.0
-38.0,-6.0,-54.0,48.0,1995.0,315.0,-529.0,1392.0
-21.0,-28.0,-42.0,48.0,1340.0,203.0,-668.0,811.0
-9.0,-36.0,-41.0,12.0,1397.0,199.0,-794.0,253.0
-17.0,-18.0,-13.0,21.0,60.0,303.0,-706.0,-334.0
-24.0,-50.0,-16.0,25.0,-647.0,498.0,-384.0,-679.0
-14.0,-25.0,-28.0,19.0,745.0,520.0,-80.0,-758.0
-14.0,-15.0,-11.0,7.0,1865.0,35.0,155.0,-974.0
-7.0,-27.0,-11.0,12.0,310.0,-476.0,159.0,-1265.0
0.0,-9.0,-5.0,42.0,-3185.0,-579.0,155.0,-1475.0
-5.0,-22.0,15.0,37.0,-3521.0,-448.0,346.0,-1339.0
-5.0,0.0,19.0,8.0,-3185.0,235.0,278.0,-557.0
0.0,-1.0,20.0,0.0,-4000.0,1083.0,77.0,394.0
-14.0,-23.0,31.0,-24.0,-4000.0,1214.0,-37.0,1136.0
3.0,-33.0,14.0,-15.0,-4000.0,791.0,193.0,1859.0
16.0,-18.0,13.0,-19.0,-4000.0,636.0,681.0,2380.0
11.0,-5.0,28.0,-34.0,-4000.0,654.0,1149.0,2835.0
-6.0,-6.0,21.0,-18.0,-4000.0,394.0,1735.0,2948.0
-33.0,2.0,31.0,-32.0,-4000.0,115.0,1908.0,2807.0
-14.0,1.0,53.0,-11.0,201.0,-224.0,1223.0,2544.0
-16.0,12.0,48.0,4.0,4000.0,-419.0,274.0,2042.0
-9.0,9.0,18.0,0.0,4000.0,-555.0,-245.0,1598.0
2.0,10.0,27.0,-14.0,4000.0,-676.0,-408.0,1136.0
-1.0,18.0,42.0,-16.0,4000.0,-685.0,-161.0,760.0
8.0,21.0,47.0,11.0,4000.0,-643.0,49.0,583.0
14.0,-1.0,64.0,28.0,4000.0,-519.0,191.0,536.0
12.0,-10.0,56.0,-4.0,4000.0,-582.0,-74.0,564.0
13.0,15.0,34.0,-20.0,4000.0,-556.0,-796.0,674.0
-3.0,17.0,30.0,1.0,4000.0,-640.0,-697.0,802.0
0.0,32.0,23.0,5.0,4000.0,-741.0,-188.0,932.0
27.0,26.0,39.0,-17.0,4000.0,-665.0,671.0,1057.0
-6.0,15.0,28.0,-42.0,4000.0,-597.0,1027.0,1198.0
-18.0,14.0,1.0,-37.0,4000.0,-476.0,642.0,1399.0
2.0,-1.0,1.0,-49.0,4000.0,-456.0,394.0,1633.0
-14.0,-1.0,16.0,-41.0,4000.0,-519.0,366.0,1963.0
-12.0,-3.0,21.0,-33.0,4000.0,-672.0,604.0,2302.0
12.0,16.0,3.0,-38.0,4000.0,-621.0,687.0,2705.0
4.0,31.0,42.0,-10.0,4000.0,-423.0,603.0,3031.0
25.0,25.0,56.0,-13.0,4000.0,-244.0,441.0,3209.0
35.0,30.0,23.0,-44.0,4000.0,-52.0,421.0,3326.0
12.0,44.0,30.0,-57.0,4000.0,-84.0,548.0,3261.0
20.0,24.0,1.0,-49.0,4000.0,-210.0,858.0,3096.0
17.0,5.0,-5.0,-36.0,4000.0,-297.0,881.0,2941.0
15.0,14.0,19.0,-16.0,4000.0,-340.0,208.0,2705.0
9.0,-3.0,-10.0,-19.0,3150.0,-333.0,-102.0,2290.0
-3.0,-18.0,5.0,-7.0,857.0,-152.0,-3.0,1763.0
-20.0,-3.0,16.0,-11.0,-1398.0,-53.0,380.0,1187.0
-20.0,-3.0,11.0,-33.0,-4000.0,126.0,1119.0,677.0
-35.0,-6.0,-3.0,-5.0,-4000.0,376.0,1353.0,341.0
-38.0,-22.0,-20.0,-27.0,-4000.0,589.0,919.0,50.0
-48.0,-6.0,-25.0,-23.0,-4000.0,878.0,58.0,-117.0
-66.0,-4.0,-41.0,-26.0,-4000.0,1009.0,-678.0,-305.0
-34.0,-34.0,-29.0,-32.0,-4000.0,1205.0,-946.0,-549.0
-38.0,-36.0,-36.0,-19.0,-4000.0,1344.0,-672.0,-781.0
-32.0,-20.0,-26.0,-44.0,-4000.0,1214.0,236.0,-993.0
-19.0,-30.0,-22.0,-33.0,-4000.0,823.0,702.0,-1078.0
-27.0,-28.0,-14.0,-37.0,-4000.0,303.0,467.0,-1170.0
-25.0,-10.0,-20.0,-49.0,-4000.0,-352.0,116.0,-1265.0
-18.0,-35.0,-48.0,-137.0,-4000.0,-1647.0,-149.0,-1310.0
-15.0,-30.0,-42.0,-141.0,-4000.0,-3323.0,45.0,-1312.0
-9.0,-14.0,-24.0,-81.0,-3586.0,-4000.0,249.0,-1298.0
-30.0,-31.0,-32.0,-83.0,-3107.0,-4000.0,140.0,-1191.0
1.0,-20.0,-5.0,-57.0,-2676.0,-3514.0,46.0,-1018.0
-4.0,-20.0,3.0,-21.0,-2537.0,-2374.0,94.0,-818.0
-34.0,-7.0,-16.0,19.0,-2608.0,-1664.0,341.0,-638.0
-28.0,13.0,9.0,22.0,-2676.0,-1047.0,380.0,-484.0
-27.0,7.0,10.0,-2.0,-3182.0,-436.0,59.0,-279.0
-11.0,8.0,14.0,-1.0,-3982.0,486.0,-156.0,-127.0
-36.0,4.0,13.0,-8.0,-3575.0,1279.0,178.0,-40.0
-4.0,28.0,15.0,0.0,-3197.0,1795.0,734.0,-33.0
24.0,37.0,17.0,-3.0,-3917.0,1982.0,930.0,-7.0
17.0,17.0,6.0,-16.0,-4000.0,1799.0,667.0,25.0
20.0,18.0,19.0,-6.0,-4000.0,1722.0,433.0,70.0
1.0,17.0,-2.0,-10.0,-4000.0,1655.0,554.0,100.0
36.0,37.0,20.0,29.0,-4000.0,1639.0,604.0,108.0
23.0,33.0,7.0,22.0,-4000.0,1604.0,526.0,82.0
9.0,28.0,1.0,22.0,-4000.0,1405.0,390.0,-26.0
-3.0,34.0,40.0,28.0,-4000.0,1092.0,283.0,-50.0
10.0,46.0,21.0,11.0,-4000.0,766.0,242.0,-96.0
14.0,58.0,13.0,17.0,-4000.0,406.0,113.0,-136.0
5.0,30.0,17.0,-6.0,-4000.0,49.0,-18.0,-116.0
-9.0,50.0,10.0,12.0,-4000.0,-110.0,-192.0,-123.0
-11.0,40.0,16.0,8.0,-4000.0,105.0,-19.0,-91.0
6.0,3.0,4.0,5.0,-4000.0,280.0,213.0,-129.0
-36.0,10.0,-26.0,-7.0,-4000.0,311.0,53.0,-258.0
-5.0,12.0,-3.0,-5.0,-4000.0,267.0,77.0,-358.0
-16.0,19.0,-3.0,-10.0,-4000.0,201.0,38.0,-431.0
-32.0,-6.0,-21.0,-10.0,-4000.0,179.0,-128.0,-549.0
5.0,3.0,2.0,12.0,-4000.0,183.0,-3.0,-618.0
-33.0,-1.0,-22.0,-28.0,-4000.0,246.0,170.0,-685.0
-32.0,-13.0,-26.0,-25.0,-4000.0,196.0,374.0,-781.0
-13.0,-15.0,7.0,-4.0,-4000.0,94.0,368.0,-875.0
-32.0,-14.0,-26.0,-39.0,-4000.0,-33.0,100.0,-980.0
-12.0,-5.0,-29.0,-38.0,-4000.0,-208.0,20.0,-1078.0
-8.0,-26.0,-20.0,-52.0,-4000.0,-354.0,-134.0,-1148.0
-27.0,-18.0,-5.0,-50.0,-4000.0,-411.0,-306.0,-1213.0
-11.0,-13.0,-32.0,21.0,-4000.0,-358.0,-428.0,-1330.0
-8.0,-18.0,-30.0,65.0,-3963.0,-175.0,-587.0,-1375.0
-24.0,-7.0,-2.0,27.0,-2989.0,-202.0,-640.0,-1439.0
-24.0,-10.0,-1.0,22.0,-1817.0,-95.0,-646.0,-1514.0
-25.0,-4.0,0.0,43.0,-1007.0,235.0,-489.0,-1534.0
2.0,15.0,-44.0,26.0,-649.0,246.0,-383.0,-1606.0
16.0,-3.0,-44.0,-26.0,-912.0,160.0,-317.0,-1655.0
-15.0,9.0,-15.0,-86.0,-1384.0,-76.0,-320.0,-1746.0
-13.0,7.0,4.0,-120.0,-2056.0,-456.0,-359.0,-1969.0
-27.0,-14.0,-2.0,-136.0,-3083.0,-810.0,-322.0,-2128.0
-4.0,-3.0,-17.0,-153.0,-3985.0,-808.0,-310.0,-2165.0
4.0,-22.0,-12.0,-90.0,-4000.0,-685.0,-327.0,-2237.0
-16.0,-26.0,5.0,-1.0,-4000.0,-439.0,-355.0,-2215.0
-14.0,-23.0,-10.0,-5.0,-3963.0,30.0,-344.0,-2146.0
-9.0,-5.0,-12.0,22.0,-3510.0,206.0,-308.0,-2088.0
1.0,5.0,7.0,40.0,-3107.0,390.0,-290.0,-1998.0
10.0,-7.0,21.0,43.0,-2806.0,400.0,-223.0,-1950.0
20.0,5.0,16.0,36.0,-2688.0,376.0,-136.0,-1856.0
-6.0,30.0,-22.0,-10.0,-1888.0,311.0,-206.0,-1762.0
6.0,34.0,-2.0,11.0,-204.0,57.0,-233.0,-1655.0
3.0,10.0,-2.0,8.0,2112.0,-258.0,-224.0,-1520.0
-17.0,20.0,0.0,-23.0,4000.0,-620.0,-241.0,-1365.0
-9.0,33.0,19.0,-37.0,4000.0,-511.0,-204.0,-1111.0
-15.0,30.0,-1.0,-32.0,4000.0,-142.0,-241.0,-818.0
0.0,52.0,8.0,-3.0,4000.0,107.0,-273.0,-496.0
36.0,50.0,16.0,-14.0,4000.0,178.0,-176.0,-195.0
-4.0,12.0,5.0,-13.0,4000.0,129.0,-83.0,98.0
-25.0,28.0,0.0,23.0,4000.0,111.0,-17.0,373.0
-23.0,40.0,-12.0,23.0,4000.0,118.0,25.0,666.0
-20.0,43.0,3.0,12.0,4000.0,183.0,23.0,947.0
-23.0,22.0,-7.0,-4.0,4000.0,398.0,-29.0,1187.0
-20.0,-26.0,-15.0,-30.0,4000.0,601.0,-169.0,1384.0
-1.0,-1.0,7.0,-2.0,4000.0,681.0,-273.0,1532.0
-5.0,-22.0,-2.0,-21.0,3875.0,687.0,-290.0,1574.0
4.0,-22.0,-10.0,-8.0,3592.0,592.0,-192.0,1476.0
-6.0,-1.0,-37.0,1.0,3020.0,408.0,-131.0,1346.0
-7.0,4.0,-36.0,-29.0,2581.0,105.0,-77.0,1319.0
33.0,9.0,-25.0,-10.0,2060.0,-61.0,-66.0,1260.0
15.0,12.0,-29.0,2.0,1313.0,142.0,-68.0,1195.0
-17.0,-15.0,-39.0,20.0,562.0,571.0,-16.0,1176.0
-14.0,-7.0,-43.0,-10.0,-175.0,944.0,-54.0,1142.0
-32.0,-11.0,-35.0,-65.0,-528.0,1312.0,-47.0,1142.0
-26.0,-25.0,-37.0,-78.0,-551.0,1443.0,-56.0,1150.0
-23.0,-12.0,-44.0,-78.0,-644.0,1287.0,-28.0,1192.0
-18.0,-13.0,-43.0,-60.0,-837.0,1182.0,-2.0,1085.0
-13.0,1.0,-1.0,-9.0,-947.0,902.0,6.0,955.0
-26.0,-5.0,-7.0,-30.0,-1198.0,563.0,-15.0,870.0
-14.0,-6.0,-32.0,-75.0,-1463.0,274.0,-12.0,817.0
-32.0,-3.0,-25.0,-48.0,-1488.0,167.0,12.0,803.0
-37.0,-11.0,-39.0,-57.0,-1319.0,178.0,17.0,680.0
-10.0,-19.0,-29.0,-72.0,-1188.0,9.0,45.0,629.0
-1.0,-13.0,-51.0,-89.0,-812.0,-134.0,56.0,569.0
-2.0,-11.0,-80.0,-75.0,-449.0,-2.0,88.0,491.0
-6.0,2.0,-40.0,-13.0,-218.0,144.0,73.0,462.0
1.0,-7.0,-25.0,-28.0,50.0,101.0,83.0,438.0
0.0,-9.0,-25.0,0.0,152.0,77.0,111.0,426.0
8.0,17.0,-6.0,20.0,367.0,-69.0,120.0,399.0
23.0,18.0,19.0,11.0,505.0,-333.0,94.0,355.0
12.0,7.0,30.0,44.0,432.0,-459.0,80.0,361.0
-5.0,9.0,-9.0,34.0,296.0,-419.0,79.0,354.0
9.0,26.0,10.0,60.0,-56.0,-318.0,69.0,292.0
-5.0,32.0,5.0,45.0,-421.0,-271.0,105.0,282.0
-13.0,27.0,-2.0,32.0,-612.0,-150.0,69.0,255.0
-9.0,15.0,24.0,30.0,-378.0,-66.0,9.0,241.0
-33.0,-6.0,11.0,14.0,267.0,7.0,-101.0,238.0
-28.0,-8.0,-6.0,16.0,1059.0,102.0,-198.0,193.0
-29.0,-21.0,-7.0,-18.0,1842.0,197.0,-272.0,174.0
-9.0,-23.0,18.0,-36.0,2581.0,401.0,-279.0,182.0
-16.0,-14.0,-4.0,-69.0,3085.0,520.0,-186.0,143.0
-13.0,-2.0,-30.0,-65.0,3281.0,415.0,-98.0,108.0
0.0,0.0,-7.0,-11.0,3428.0,5.0,-32.0,118.0
-4.0,8.0,12.0,24.0,3606.0,-362.0,-48.0,141.0
6.0,3.0,13.0,18.0,3903.0,-586.0,-58.0,164.0
-9.0,13.0,39.0,48.0,4000.0,-537.0,-47.0,174.0
1.0,20.0,14.0,52.0,4000.0,-318.0,-56.0,204.0
10.0,-7.0,4.0,15.0,4000.0,-204.0,-116.0,237.0
0.0,2.0,16.0,16.0,4000.0,-82.0,-266.0,283.0
-8.0,20.0,-25.0,-15.0,4000.0,-113.0,-507.0,336.0
-9.0,11.0,-11.0,-57.0,4000.0,46.0,-658.0,357.0
3.0,-8.0,-30.0,-50.0,4000.0,396.0,-527.0,384.0
-5.0,-10.0,-12.0,-53.0,4000.0,571.0,-204.0,426.0
-12.0,13.0,26.0,-45.0,4000.0,641.0,22.0,474.0
-5.0,41.0,23.0,-16.0,3623.0,641.0,33.0,462.0
-12.0,25.0,-7.0,-18.0,3085.0,445.0,-85.0,473.0
8.0,24.0,-15.0,12.0,2421.0,210.0,-167.0,432.0
3.0,21.0,26.0,12.0,1865.0,21.0,-119.0,334.0
-50.0,-5.0,12.0,16.0,1333.0,-124.0,-17.0,271.0
-33.0,-16.0,8.0,6.0,831.0,21.0,83.0,181.0
-31.0,-22.0,8.0,-9.0,522.0,248.0,197.0,133.0
-46.0,-45.0,2.0,13.0,287.0,185.0,145.0,49.0
-36.0,-83.0,3.0,27.0,83.0,-152.0,58.0,-21.0
-33.0,-57.0,-10.0,30.0,-117.0,-253.0,116.0,-76.0
-10.0,-29.0,8.0,39.0,-207.0,-130.0,183.0,-168.0
6.0,-27.0,12.0,5.0,-326.0,-61.0,248.0,-166.0
16.0,-30.0,-11.0,-44.0,-360.0,-127.0,319.0,-201.0
10.0,-12.0,0.0,-23.0,-234.0,-224.0,362.0,-240.0
-5.0,24.0,-9.0,-53.0,-60.0,-125.0,348.0,-259.0
4.0,9.0,-23.0,-64.0,16.0,185.0,348.0,-288.0
7.0,-10.0,5.0,-56.0,-19.0,210.0,366.0,-305.0
-20.0,-18.0,1.0,-39.0,34.0,43.0,367.0,-301.0
-12.0,-7.0,33.0,-13.0,-179.0,-27.0,362.0,-312.0
-21.0,-21.0,45.0,27.0,-712.0,-48.0,325.0,-275.0
-39.0,-43.0,45.0,63.0,-999.0,136.0,315.0,-157.0
-15.0,-4.0,47.0,10.0,-1077.0,85.0,309.0,-146.0
-1.0,24.0,36.0,28.0,-818.0,-276.0,321.0,-198.0
3.0,34.0,52.0,26.0,-486.0,-685.0,352.0,-212.0
-14.0,52.0,40.0,18.0,-705.0,-852.0,333.0,-257.0
-9.0,34.0,20.0,6.0,-1007.0,-657.0,307.0,-288.0
-18.0,51.0,-2.0,-62.0,-1455.0,-262.0,303.0,-312.0
-17.0,63.0,-41.0,-45.0,-1729.0,-15.0,329.0,-313.0
8.0,36.0,-98.0,-32.0,-1528.0,35.0,309.0,-305.0
0.0,21.0,-52.0,-64.0,-1120.0,31.0,217.0,-297.0
8.0,8.0,5.0,-95.0,-281.0,-72.0,194.0,-270.0
8.0,37.0,-71.0,-190.0,659.0,-210.0,220.0,-252.0
3.0,45.0,-116.0,-251.0,1352.0,-320.0,276.0,-232.0
9.0,40.0,-55.0,-134.0,1840.0,-349.0,335.0,-224.0
9.0,44.0,10.0,-57.0,2189.0,-417.0,308.0,-294.0
13.0,49.0,-22.0,-71.0,2581.0,-379.0,243.0,-297.0
8.0,59.0,-15.0,-15.0,2842.0,-415.0,150.0,-254.0
6.0,39.0,-1.0,-26.0,2825.0,-450.0,116.0,-207.0
3.0,70.0,-21.0,-16.0,2878.0,-275.0,142.0,-152.0
-1.0,52.0,-8.0,29.0,2907.0,-112.0,139.0,-118.0
10.0,25.0,-4.0,46.0,3102.0,78.0,97.0,-43.0
-3.0,29.0,-7.0,38.0,3215.0,154.0,22.0,-5.0
-13.0,3.0,-26.0,50.0,3085.0,56.0,-14.0,38.0
-31.0,-41.0,33.0,81.0,2695.0,-84.0,-1.0,10.0
-50.0,-59.0,64.0,34.0,2060.0,-169.0,-28.0,42.0
-31.0,-57.0,-9.0,16.0,1645.0,-247.0,-47.0,8.0
-37.0,-57.0,-46.0,-24.0,1482.0,-177.0,-88.0,-74.0
-39.0,-32.0,-8.0,-4.0,1473.0,-78.0,-135.0,66.0
-29.0,-39.0,5.0,-25.0,1344.0,-63.0,-102.0,139.0
-20.0,-24.0,10.0,-60.0,1077.0,126.0,-102.0,90.0
-16.0,3.0,15.0,-32.0,758.0,246.0,-80.0,15.0
0.0,26.0,-45.0,-8.0,258.0,183.0,-89.0,-88.0
6.0,40.0,-18.0,16.0,-437.0,199.0,-145.0,-187.0
20.0,18.0,-5.0,22.0,-1012.0,86.0,-175.0,-112.0
17.0,23.0,4.0,36.0,-1508.0,-221.0,-187.0,-108.0
3.0,26.0,23.0,8.0,-1915.0,-268.0,-186.0,-378.0
-13.0,-32.0,18.0,6.0,-2122.0,-175.0,-190.0,-401.0
-37.0,-87.0,24.0,-9.0,-2018.0,-350.0,-175.0,-391.0
-7.0,-57.0,33.0,-11.0,-1849.0,-282.0,-159.0,-267.0
-18.0,-24.0,47.0,-23.0,-1750.0,-57.0,-117.0,-36.0
-6.0,-3.0,36.0,18.0,-1637.0,-29.0,-121.0,186.0
46.0,3.0,33.0,27.0,-1469.0,-123.0,-131.0,421.0
8.0,12.0,12.0,2.0,-1255.0,-228.0,-126.0,192.0
5.0,37.0,39.0,-25.0,-999.0,-85.0,-139.0,68.0
12.0,11.0,5.0,-63.0,-775.0,-194.0,-114.0,106.0
-9.0,-3.0,-13.0,-18.0,-641.0,-116.0,-104.0,43.0
-21.0,-13.0,-47.0,-41.0,-582.0,119.0,-82.0,-118.0
-42.0,-20.0,-53.0,-94.0,-531.0,191.0,-81.0,-413.0
-4.0,1.0,-62.0,-121.0,-476.0,329.0,-130.0,-824.0
12.0,-10.0,-93.0,-95.0,-408.0,265.0,-142.0,-427.0
15.0,16.0,-6.0,-30.0,-356.0,427.0,-107.0,241.0
30.0,43.0,15.0,11.0,-374.0,494.0,-81.0,90.0
42.0,59.0,9.0,23.0,-334.0,412.0,-16.0,58.0
30.0,57.0,27.0,21.0,-317.0,441.0,-21.0,-5.0
17.0,37.0,37.0,13.0,-371.0,336.0,-53.0,-117.0
8.0,0.0,28.0,13.0,-482.0,337.0,-46.0,-46.0
-40.0,-59.0,31.0,-41.0,-556.0,256.0,-83.0,41.0
-40.0,-63.0,12.0,-51.0,-614.0,216.0,-38.0,148.0
-26.0,-75.0,-8.0,-38.0,-763.0,274.0,-25.0,158.0
-16.0,-79.0,7.0,-57.0,-921.0,237.0,-71.0,295.0
-18.0,-81.0,-9.0,-44.0,-1129.0,203.0,-94.0,255.0
-20.0,-45.0,-11.0,-38.0,-1333.0,241.0,-56.0,159.0
7.0,-7.0,-25.0,-41.0,-1528.0,248.0,-39.0,3.0
-16.0,-3.0,-24.0,-33.0,-1619.0,127.0,-89.0,-446.0
-23.0,17.0,-16.0,-32.0,-1528.0,62.0,-155.0,-149.0
1.0,-1.0,5.0,3.0,-1442.0,27.0,-252.0,359.0
-20.0,-16.0,8.0,10.0,-1398.0,-27.0,-267.0,227.0
-1.0,-16.0,11.0,-14.0,-1398.0,35.0,-187.0,426.0
23.0,4.0,21.0,10.0,-1194.0,37.0,-69.0,556.0
-1.0,21.0,-24.0,-12.0,-978.0,76.0,16.0,591.0
23.0,40.0,-20.0,-14.0,-812.0,13.0,44.0,473.0
7.0,44.0,-24.0,-1.0,-687.0,-77.0,-47.0,182.0
-29.0,-1.0,-37.0,6.0,-860.0,53.0,-30.0,165.0
-12.0,9.0,-24.0,19.0,-1072.0,68.0,-4.0,518.0
-9.0,37.0,-28.0,10.0,-1182.0,93.0,-224.0,731.0
7.0,51.0,-11.0,13.0,-1164.0,12.0,-394.0,450.0
2.0,52.0,-15.0,-7.0,-1012.0,-110.0,-507.0,795.0
5.0,43.0,-19.0,-7.0,-734.0,75.0,-464.0,1136.0
-3.0,33.0,1.0,-4.0,-309.0,172.0,-247.0,1077.0
-40.0,27.0,4.0,-19.0,40.0,180.0,4.0,1130.0
0.0,31.0,-25.0,-2.0,154.0,184.0,359.0,914.0
-4.0,2.0,17.0,15.0,187.0,110.0,681.0,-79.0
-29.0,8.0,13.0,16.0,129.0,164.0,999.0,-1204.0
-4.0,3.0,-6.0,10.0,5.0,126.0,1084.0,-2034.0
-51.0,-12.0,-18.0,23.0,-40.0,124.0,759.0,-1970.0
-28.0,22.0,-11.0,19.0,-149.0,123.0,321.0,-659.0
21.0,28.0,-5.0,-15.0,-195.0,155.0,39.0,187.0
-3.0,43.0,-22.0,-24.0,-152.0,176.0,7.0,414.0
8.0,45.0,-21.0,-12.0,-210.0,50.0,311.0,491.0
5.0,46.0,-41.0,-9.0,-160.0,42.0,622.0,453.0
-33.0,30.0,-47.0,-40.0,3.0,-13.0,557.0,528.0
-34.0,-14.0,-46.0,-33.0,247.0,-26.0,403.0,796.0
-14.0,-14.0,-51.0,-26.0,612.0,-63.0,160.0,751.0
-21.0,-39.0,-50.0,-8.0,961.0,-48.0,-92.0,387.0
-38.0,-23.0,-18.0,-5.0,1328.0,-22.0,9.0,155.0
-13.0,-18.0,-24.0,-17.0,1538.0,-32.0,376.0,-614.0
-43.0,-36.0,-24.0,-9.0,1547.0,-20.0,779.0,-1083.0
-48.0,-37.0,11.0,-14.0,1539.0,-36.0,1135.0,-282.0
-17.0,-48.0,4.0,8.0,1580.0,-24.0,962.0,203.0
-4.0,-11.0,-10.0,15.0,1539.0,-51.0,481.0,-51.0
2.0,18.0,-7.0,8.0,1443.0,-19.0,50.0,-220.0
10.0,40.0,-7.0,-21.0,1312.0,-36.0,-394.0,-417.0
24.0,37.0,-1.0,-11.0,1148.0,-69.0,-598.0,-12.0
-6.0,15.0,14.0,-24.0,1026.0,-42.0,-607.0,-254.0
11.0,56.0,-6.0,-45.0,857.0,-41.0,-424.0,-883.0
-12.0,66.0,10.0,-17.0,681.0,-37.0,-152.0,-931.0
-33.0,36.0,5.0,3.0,496.0,-41.0,20.0,-305.0
-11.0,33.0,6.0,-28.0,218.0,-43.0,155.0,45.0
-8.0,34.0,23.0,-61.0,-82.0,-54.0,245.0,-605.0
-23.0,-15.0,-4.0,-93.0,-311.0,-65.0,472.0,-534.0
-39.0,-22.0,-10.0,-129.0,-478.0,-42.0,420.0,9.0
5.0,0.0,-7.0,-90.0,-583.0,-33.0,246.0,591.0
-2.0,-2.0,26.0,-83.0,-549.0,-39.0,43.0,580.0
-27.0,13.0,13.0,-43.0,-425.0,-33.0,-290.0,230.0
-2.0,-7.0,-1.0,2.0,-307.0,-50.0,-420.0,203.0
-13.0,-23.0,34.0,27.0,-209.0,-58.0,-507.0,-100.0
-8.0,-33.0,10.0,15.0,-108.0,-58.0,-459.0,134.0
-12.0,-40.0,-10.0,20.0,-55.0,-35.0,-477.0,751.0
-18.0,2.0,-2.0,22.0,-41.0,-2.0,-424.0,981.0
5.0,1.0,-13.0,-6.0,-13.0,36.0,-522.0,1260.0
-14.0,1.0,-5.0,19.0,-12.0,32.0,-787.0,1651.0
-17.0,26.0,-22.0,22.0,14.0,32.0,-737.0,2029.0
-12.0,34.0,-30.0,27.0,-25.0,68.0,-594.0,1724.0
3.0,41.0,-12.0,39.0,-70.0,66.0,-583.0,621.0
10.0,58.0,-20.0,4.0,-99.0,43.0,-340.0,-592.0
22.0,52.0,15.0,-38.0,-152.0,-17.0,61.0,-1135.0
15.0,63.0,-7.0,-15.0,-91.0,-2.0,139.0,-1985.0
5.0,64.0,-23.0,-16.0,-47.0,26.0,38.0,-2350.0
-27.0,18.0,20.0,-12.0,-150.0,-30.0,-280.0,-1615.0
-75.0,-28.0,47.0,0.0,-183.0,-5.0,-515.0,-2319.0
-41.0,-62.0,14.0,-9.0,-291.0,-15.0,-442.0,-1860.0
-46.0,-60.0,-17.0,12.0,-326.0,-37.0,-290.0,-286.0
-53.0,-55.0,-14.0,4.0,-228.0,-56.0,-382.0,-145.0
-27.0,-41.0,-38.0,0.0,-160.0,-64.0,-298.0,-251.0
-31.0,-41.0,-24.0,-14.0,16.0,-79.0,14.0,92.0
-28.0,-33.0,-23.0,1.0,122.0,-57.0,41.0,686.0
-1.0,-14.0,-18.0,17.0,208.0,-33.0,91.0,1112.0
7.0,-13.0,-15.0,-22.0,232.0,-66.0,-23.0,1381.0
17.0,22.0,-20.0,-19.0,190.0,-36.0,-190.0,1322.0
33.0,19.0,3.0,-14.0,-34.0,-6.0,-355.0,1129.0
-4.0,26.0,-6.0,-26.0,-476.0,10.0,-375.0,1248.0
-6.0,-2.0,-7.0,-46.0,-898.0,51.0,-404.0,1183.0
-4.0,-23.0,-20.0,-42.0,-1235.0,58.0,-548.0,760.0
4.0,6.0,-25.0,-37.0,-1504.0,1.0,-678.0,96.0
23.0,10.0,-3.0,-36.0,-1756.0,-57.0,-787.0,-518.0
12.0,31.0,-8.0,-18.0,-1979.0,-41.0,-546.0,-1213.0
0.0,66.0,23.0,-2.0,-2159.0,30.0,-327.0,-1404.0
-2.0,76.0,18.0,9.0,-2312.0,48.0,-310.0,-549.0
-13.0,72.0,-7.0,23.0,-2513.0,51.0,-475.0,-521.0
9.0,50.0,-5.0,15.0,-2818.0,36.0,-716.0,-1578.0
2.0,33.0,-26.0,22.0,-3172.0,-7.0,-846.0,-843.0
-9.0,24.0,-3.0,27.0,-3391.0,-9.0,-672.0,192.0
-1.0,-4.0,8.0,24.0,-3576.0,-2.0,-320.0,-401.0
-29.0,-66.0,1.0,9.0,-3747.0,48.0,-47.0,-622.0
-31.0,-68.0,3.0,-15.0,-3898.0,44.0,271.0,1.0
-21.0,-34.0,18.0,-9.0,-4000.0,17.0,607.0,634.0
2.0,-58.0,13.0,10.0,-4000.0,-15.0,1013.0,811.0
3.0,-26.0,4.0,4.0,-4000.0,-32.0,1341.0,935.0
-6.0,-36.0,8.0,-1.0,-4000.0,6.0,1410.0,1012.0
10.0,-60.0,3.0,11.0,-4000.0,37.0,1214.0,1111.0
31.0,-16.0,11.0,9.0,-2912.0,63.0,962.0,961.0
7.0,13.0,14.0,-16.0,-1129.0,53.0,832.0,745.0
-1.0,30.0,27.0,-15.0,1213.0,27.0,946.0,424.0
-4.0,20.0,28.0,-18.0,4000.0,-2.0,889.0,-449.0
-31.0,14.0,14.0,-31.0,4000.0,-19.0,954.0,-1384.0
-25.0,20.0,-11.0,-44.0,4000.0,-25.0,1461.0,-1339.0
-10.0,31.0,-11.0,-69.0,4000.0,-15.0,2061.0,-1078.0
-6.0,25.0,-29.0,-78.0,4000.0,-27.0,2514.0,-1534.0
-28.0,-6.0,-39.0,-67.0,4000.0,-47.0,2126.0,-1269.0
-40.0,-43.0,-15.0,-88.0,4000.0,-50.0,1532.0,-869.0
-88.0,-108.0,-28.0,-84.0,4000.0,-43.0,1054.0,-599.0
-76.0,-55.0,-33.0,-67.0,4000.0,-13.0,510.0,349.0
-18.0,-20.0,-45.0,-74.0,4000.0,-26.0,373.0,727.0
-5.0,-53.0,-21.0,-55.0,3916.0,-47.0,506.0,261.0
-12.0,-16.0,-28.0,-47.0,3346.0,-83.0,832.0,318.0
-27.0,3.0,-40.0,-57.0,3269.0,-61.0,1214.0,258.0
-3.0,48.0,0.0,-33.0,3657.0,-26.0,1418.0,174.0
9.0,52.0,10.0,6.0,4000.0,-6.0,1092.0,261.0
20.0,31.0,17.0,31.0,4000.0,37.0,613.0,228.0
36.0,56.0,7.0,35.0,4000.0,37.0,425.0,334.0
23.0,41.0,11.0,35.0,4000.0,23.0,276.0,324.0
8.0,34.0,24.0,22.0,3606.0,22.0,230.0,396.0
-8.0,6.0,-2.0,16.0,1518.0,28.0,220.0,409.0
-20.0,1.0,31.0,34.0,-242.0,-29.0,219.0,485.0
-16.0,7.0,18.0,22.0,-853.0,-36.0,47.0,454.0
-13.0,18.0,25.0,23.0,-335.0,-6.0,-67.0,467.0
-7.0,44.0,45.0,40.0,676.0,-14.0,-194.0,426.0
16.0,22.0,15.0,15.0,1292.0,-20.0,-211.0,340.0
18.0,25.0,4.0,-10.0,1248.0,-55.0,-114.0,490.0
-12.0,36.0,-1.0,-6.0,802.0,-107.0,-188.0,586.0
-33.0,20.0,-4.0,-53.0,82.0,-79.0,-90.0,556.0
-32.0,-16.0,-14.0,-96.0,-659.0,-71.0,83.0,550.0
-21.0,-27.0,-40.0,-113.0,-1202.0,-49.0,195.0,550.0
-43.0,-37.0,-36.0,-119.0,-1446.0,-6.0,71.0,556.0
-36.0,-18.0,-11.0,-98.0,-1318.0,-15.0,109.0,731.0
6.0,-1.0,6.0,-77.0,-1124.0,-40.0,203.0,902.0
-15.0,-12.0,14.0,-42.0,-1185.0,-47.0,183.0,1272.0
-5.0,3.0,-6.0,-29.0,-1455.0,11.0,126.0,1286.0
12.0,21.0,-10.0,-29.0,-1797.0,-2.0,-10.0,890.0
-3.0,36.0,-28.0,-44.0,-2231.0,32.0,-18.0,896.0
-13.0,33.0,-21.0,-53.0,-2623.0,64.0,-86.0,1192.0
3.0,3.0,10.0,-15.0,-3132.0,47.0,-235.0,1012.0
42.0,-6.0,-3.0,-5.0,-3817.0,70.0,-601.0,225.0
27.0,16.0,-8.0,-10.0,-4000.0,68.0,-802.0,-443.0
27.0,12.0,8.0,6.0,-4000.0,82.0,-897.0,-622.0
25.0,-41.0,-10.0,1.0,-4000.0,92.0,-941.0,-584.0
-5.0,-43.0,-11.0,-8.0,-4000.0,90.0,-782.0,-658.0
-10.0,-3.0,-13.0,10.0,-3923.0,81.0,-852.0,-197.0
-16.0,-18.0,-18.0,18.0,-3315.0,99.0,-1199.0,194.0
-19.0,7.0,8.0,28.0,-2856.0,104.0,-1397.0,450.0
6.0,28.0,0.0,23.0,-2716.0,85.0,-1254.0,867.0
13.0,40.0,3.0,9.0,-2931.0,78.0,-1076.0,947.0
5.0,40.0,11.0,16.0,-3262.0,115.0,-1136.0,695.0
16.0,56.0,-8.0,35.0,-3510.0,115.0,-1448.0,-88.0
33.0,66.0,-20.0,44.0,-3498.0,138.0,-1527.0,-444.0
5.0,25.0,9.0,54.0,-3186.0,171.0,-1271.0,-750.0
-2.0,24.0,3.0,20.0,-2906.0,151.0,-794.0,-671.0
0.0,31.0,5.0,23.0,-2598.0,139.0,-652.0,-301.0
-27.0,38.0,-24.0,23.0,-2247.0,118.0,-1070.0,-356.0
-58.0,-18.0,-49.0,-6.0,-1918.0,119.0,-1227.0,-524.0
-58.0,-42.0,-48.0,5.0,-1665.0,130.0,-1169.0,-1013.0
-39.0,-46.0,-53.0,-32.0,-1498.0,152.0,-962.0,-1274.0
-19.0,-57.0,-32.0,-28.0,-1333.0,107.0,-750.0,-883.0
-21.0,-31.0,-37.0,-49.0,-1200.0,48.0,-882.0,-195.0
-25.0,-37.0,-18.0,-49.0,-1006.0,-25.0,-1122.0,-91.0
-56.0,-53.0,-32.0,-44.0,-773.0,-54.0,-708.0,-221.0
-36.0,-26.0,-52.0,-61.0,-470.0,-6.0,-54.0,-93.0
-28.0,-38.0,-20.0,-44.0,-229.0,44.0,-61.0,-186.0
-74.0,-72.0,-20.0,-54.0,-138.0,80.0,-435.0,-186.0
-72.0,-100.0,-16.0,-38.0,-58.0,105.0,-595.0,5.0
-105.0,-165.0,-13.0,-56.0,9.0,124.0,-255.0,189.0
-66.0,-115.0,9.0,-25.0,119.0,45.0,206.0,186.0
-35.0,-39.0,-3.0,16.0,248.0,32.0,481.0,92.0
-45.0,-31.0,-1.0,-28.0,366.0,-71.0,539.0,-175.0
-10.0,30.0,36.0,-1.0,536.0,-162.0,455.0,-940.0
14.0,52.0,11.0,-9.0,692.0,-98.0,584.0,-1632.0
27.0,42.0,7.0,-26.0,749.0,-136.0,897.0,-2377.0
12.0,40.0,-15.0,0.0,699.0,-104.0,1092.0,-3647.0
23.0,59.0,-24.0,-22.0,672.0,-64.0,1060.0,-4000.0
17.0,83.0,-20.0,-3.0,823.0,-68.0,1027.0,-3593.0
21.0,36.0,-20.0,12.0,1083.0,-8.0,1141.0,-3708.0
25.0,24.0,-5.0,12.0,1222.0,134.0,1149.0,-3527.0
8.0,33.0,-11.0,34.0,1352.0,321.0,1180.0,-2362.0
34.0,76.0,2.0,-1.0,1340.0,286.0,1119.0,-1213.0
28.0,58.0,25.0,15.0,1156.0,172.0,832.0,-1143.0
11.0,44.0,39.0,34.0,1083.0,115.0,620.0,-1324.0
17.0,64.0,40.0,15.0,1222.0,81.0,416.0,-1194.0
-5.0,19.0,36.0,-4.0,1539.0,151.0,85.0,-1208.0
-13.0,29.0,30.0,-1.0,1853.0,207.0,-233.0,-155.0
0.0,14.0,14.0,11.0,2224.0,329.0,-371.0,94.0
-16.0,-7.0,14.0,-24.0,2516.0,289.0,-271.0,264.0
-16.0,12.0,-5.0,-29.0,2646.0,154.0,-182.0,914.0
4.0,26.0,-12.0,2.0,2556.0,18.0,158.0,1248.0
-8.0,19.0,24.0,-1.0,2190.0,-177.0,628.0,1639.0
18.0,9.0,31.0,-10.0,1865.0,-240.0,962.0,1476.0
15.0,1.0,13.0,20.0,1527.0,-297.0,1288.0,1793.0
-10.0,10.0,3.0,6.0,1204.0,-463.0,1469.0,2051.0
-1.0,-4.0,14.0,-10.0,1059.0,-419.0,1280.0,2313.0
-3.0,-6.0,-7.0,-32.0,1077.0,33.0,860.0,2640.0
9.0,10.0,-17.0,-15.0,1205.0,441.0,416.0,2831.0
-3.0,4.0,-18.0,8.0,1140.0,520.0,-137.0,3002.0
-11.0,12.0,-15.0,-4.0,888.0,348.0,-387.0,3031.0
11.0,-5.0,-13.0,-4.0,784.0,392.0,207.0,3263.0
7.0,13.0,-8.0,-25.0,725.0,471.0,1183.0,3291.0
-3.0,28.0,7.0,9.0,570.0,433.0,1658.0,3422.0
-5.0,30.0,-5.0,-10.0,460.0,478.0,1575.0,3340.0
5.0,28.0,3.0,-23.0,592.0,576.0,1137.0,3202.0
12.0,20.0,1.0,11.0,635.0,592.0,455.0,3031.0
-2.0,41.0,4.0,-6.0,602.0,151.0,-320.0,2807.0
4.0,5.0,-6.0,1.0,547.0,-139.0,-1063.0,2572.0
-4.0,20.0,-32.0,-37.0,515.0,-151.0,-1383.0,2313.0
-15.0,7.0,-11.0,-56.0,607.0,-247.0,-1249.0,2042.0
-1.0,-18.0,4.0,-39.0,575.0,-275.0,-1136.0,1663.0
11.0,9.0,-7.0,-34.0,583.0,-199.0,-933.0,1338.0
3.0,15.0,-3.0,-13.0,621.0,-6.0,-548.0,1026.0
20.0,64.0,10.0,9.0,395.0,171.0,25.0,727.0
12.0,42.0,19.0,5.0,-114.0,135.0,700.0,434.0
-4.0,34.0,15.0,-13.0,-608.0,141.0,749.0,174.0
4.0,15.0,12.0,-17.0,-947.0,199.0,341.0,-158.0
-24.0,-5.0,14.0,-33.0,-1044.0,96.0,-204.0,-422.0
-16.0,19.0,-11.0,-22.0,-838.0,-141.0,-541.0,-723.0
6.0,-1.0,-9.0,-24.0,-827.0,-338.0,-129.0,-1013.0
2.0,13.0,-21.0,-51.0,-942.0,-154.0,945.0,-1180.0
-17.0,-2.0,-36.0,-54.0,-1007.0,30.0,1919.0,-1126.0
-16.0,7.0,-41.0,-38.0,-1267.0,1.0,1939.0,-997.0
-18.0,25.0,-48.0,-75.0,-1717.0,-14.0,1398.0,-1256.0
-25.0,-30.0,-26.0,-72.0,-2159.0,62.0,812.0,-1615.0
-27.0,-31.0,-29.0,-36.0,-2552.0,162.0,437.0,-1904.0
-20.0,-11.0,-12.0,-49.0,-2577.0,55.0,359.0,-2035.0
-29.0,-31.0,3.0,-33.0,-2344.0,-4.0,386.0,-2295.0
-32.0,-27.0,4.0,-52.0,-2159.0,-40.0,563.0,-2395.0
-16.0,-41.0,-16.0,-26.0,-1963.0,-146.0,860.0,-2322.0
-36.0,-28.0,-28.0,-24.0,-1756.0,-196.0,1228.0,-2682.0
-44.0,-28.0,-27.0,-25.0,-1463.0,-251.0,1757.0,-3113.0
-28.0,-22.0,-11.0,-24.0,-1229.0,-317.0,2166.0,-3048.0
-21.0,9.0,16.0,-16.0,-912.0,-232.0,2255.0,-2350.0
-32.0,8.0,4.0,15.0,-534.0,2.0,2190.0,-2179.0
-33.0,14.0,1.0,0.0,-215.0,-31.0,2190.0,-2063.0
-25.0,3.0,3.0,1.0,-4.0,-108.0,2061.0,-1558.0
-33.0,-11.0,19.0,-15.0,219.0,64.0,1670.0,-844.0
-30.0,2.0,10.0,-25.0,480.0,271.0,1158.0,-467.0
-25.0,-15.0,-23.0,-53.0,787.0,415.0,506.0,-325.0
-32.0,-26.0,-44.0,-45.0,1265.0,380.0,-8.0,-282.0
-32.0,6.0,-26.0,-14.0,1378.0,289.0,-217.0,432.0
-23.0,-12.0,-31.0,-28.0,1201.0,268.0,53.0,1533.0
-6.0,-20.0,-44.0,-22.0,1460.0,311.0,693.0,743.0
2.0,-4.0,-23.0,-17.0,2231.0,341.0,897.0,499.0
-4.0,1.0,-11.0,-2.0,3150.0,274.0,702.0,237.0
-10.0,10.0,-9.0,15.0,3493.0,219.0,535.0,-234.0
-20.0,15.0,-26.0,-13.0,2972.0,298.0,253.0,-716.0
-31.0,-1.0,-20.0,-9.0,2383.0,419.0,-159.0,-875.0
-19.0,8.0,-17.0,8.0,2101.0,473.0,-310.0,-599.0
-7.0,12.0,-18.0,7.0,2124.0,498.0,-652.0,-744.0
-8.0,-11.0,-26.0,2.0,2504.0,480.0,-1012.0,-467.0
-7.0,4.0,-28.0,-5.0,2772.0,449.0,-1006.0,-541.0
-11.0,3.0,8.0,28.0,2308.0,321.0,-1006.0,-366.0
11.0,50.0,13.0,16.0,1409.0,73.0,-1113.0,-692.0
16.0,39.0,10.0,2.0,497.0,-135.0,-1435.0,-778.0
-8.0,28.0,26.0,15.0,-486.0,-200.0,-1764.0,-431.0
-9.0,52.0,7.0,2.0,-1374.0,-261.0,-1914.0,-55.0
11.0,33.0,-14.0,9.0,-2212.0,-338.0,-2107.0,846.0
-12.0,17.0,-2.0,-10.0,-2611.0,-439.0,-2691.0,1963.0
-24.0,-10.0,-20.0,1.0,-2389.0,-598.0,-3442.0,2249.0
-6.0,10.0,-8.0,-1.0,-1888.0,-633.0,-3913.0,1728.0
-10.0,-7.0,3.0,4.0,-1885.0,-737.0,-4000.0,1989.0
-20.0,-20.0,-19.0,9.0,-2484.0,-836.0,-4000.0,1183.0
-39.0,-36.0,-5.0,-22.0,-2887.0,-940.0,-4000.0,157.0
-7.0,-37.0,-16.0,-1.0,-3066.0,-1135.0,-4000.0,692.0
-11.0,6.0,24.0,-34.0,-3321.0,-1257.0,-4000.0,358.0
32.0,5.0,-12.0,-50.0,-3510.0,-1251.0,-4000.0,-675.0
53.0,14.0,-14.0,-9.0,-2842.0,-1062.0,-4000.0,507.0
21.0,-2.0,16.0,-37.0,-1469.0,-856.0,-4000.0,2612.0
10.0,-19.0,-24.0,-94.0,-274.0,-737.0,-4000.0,3700.0
-1.0,5.0,3.0,-76.0,509.0,-794.0,-4000.0,3340.0
-10.0,-31.0,7.0,-60.0,683.0,-911.0,-4000.0,2314.0
-81.0,-74.0,27.0,-28.0,92.0,-855.0,-4000.0,1372.0
-95.0,-83.0,23.0,10.0,-728.0,-729.0,-4000.0,88.0
-45.0,-79.0,34.0,2.0,-993.0,-750.0,-4000.0,-232.0
-5.0,-37.0,52.0,40.0,-1312.0,-945.0,-3832.0,-797.0
23.0,-7.0,46.0,39.0,-1552.0,-1005.0,-3455.0,-1607.0
27.0,-17.0,41.0,-6.0,-1488.0,-861.0,-3000.0,-2100.0
5.0,0.0,35.0,4.0,-1064.0,-1030.0,-2529.0,-1970.0
15.0,-1.0,38.0,-29.0,-291.0,-1623.0,-2158.0,-1265.0
10.0,-55.0,13.0,-26.0,-37.0,-1851.0,-2064.0,-1265.0
-32.0,-31.0,10.0,-39.0,-268.0,-810.0,-1999.0,-869.0
-16.0,0.0,41.0,-63.0,-556.0,1083.0,-1755.0,-791.0
13.0,13.0,-7.0,-17.0,-273.0,1508.0,-1600.0,-1322.0
-5.0,1.0,-18.0,-54.0,300.0,40.0,-1527.0,-1735.0
-29.0,12.0,-6.0,-26.0,701.0,-1232.0,-1332.0,-1859.0
-29.0,54.0,-33.0,-33.0,1314.0,-1509.0,-1096.0,-1859.0
3.0,62.0,-26.0,-36.0,1865.0,-1070.0,-676.0,-1725.0
20.0,52.0,-33.0,-11.0,2504.0,-354.0,-184.0,-1404.0
30.0,43.0,-32.0,-37.0,3466.0,145.0,349.0,-898.0
15.0,68.0,-23.0,-16.0,4000.0,-21.0,897.0,21.0
-25.0,49.0,-26.0,-54.0,4000.0,-1382.0,1455.0,902.0
-11.0,6.0,-27.0,-71.0,4000.0,-2685.0,2036.0,1663.0
-27.0,-37.0,-30.0,-72.0,4000.0,-2986.0,2517.0,1573.0
-7.0,-5.0,15.0,-67.0,4000.0,-2532.0,2908.0,914.0
11.0,-9.0,15.0,-48.0,4000.0,-1245.0,3216.0,401.0
-13.0,-12.0,-10.0,-30.0,3682.0,510.0,3465.0,-297.0
14.0,26.0,0.0,-43.0,3167.0,2060.0,3559.0,-1070.0
12.0,20.0,6.0,-6.0,2683.0,2450.0,3708.0,-1762.0
8.0,16.0,13.0,10.0,2189.0,1994.0,3917.0,-1265.0
11.0,-19.0,-6.0,-15.0,1474.0,1958.0,4000.0,-417.0
30.0,-7.0,0.0,-22.0,596.0,1919.0,4000.0,54.0
-5.0,10.0,18.0,-33.0,35.0,1864.0,4000.0,1462.0
-19.0,-8.0,-14.0,-20.0,-335.0,1966.0,4000.0,2025.0
-4.0,-18.0,-25.0,-19.0,-460.0,1786.0,4000.0,1859.0
-17.0,25.0,2.0,12.0,-643.0,1691.0,4000.0,2184.0
13.0,20.0,-38.0,49.0,-1064.0,1580.0,4000.0,2095.0
12.0,19.0,-30.0,75.0,-1265.0,1380.0,4000.0,2025.0
6.0,15.0,-6.0,46.0,-853.0,1227.0,4000.0,1781.0
-19.0,24.0,-22.0,27.0,-664.0,1227.0,4000.0,1846.0
2.0,47.0,26.0,61.0,-993.0,1377.0,4000.0,1846.0
14.0,23.0,-3.0,59.0,-1333.0,1263.0,4000.0,1686.0
4.0,68.0,-9.0,51.0,-1573.0,1287.0,4000.0,1468.0
1.0,33.0,28.0,50.0,-1514.0,1314.0,4000.0,935.0
-29.0,8.0,-4.0,64.0,-1885.0,1140.0,4000.0,955.0
8.0,55.0,14.0,36.0,-2753.0,1033.0,4000.0,629.0
10.0,58.0,-17.0,0.0,-3510.0,788.0,4000.0,77.0
7.0,63.0,-40.0,-1.0,-3986.0,608.0,4000.0,-166.0
15.0,34.0,-12.0,-55.0,-4000.0,602.0,4000.0,-913.0
-6.0,10.0,-8.0,-63.0,-4000.0,498.0,4000.0,-1018.0
-31.0,19.0,-28.0,-65.0,-4000.0,341.0,4000.0,-1888.0
-9.0,10.0,-57.0,-98.0,-4000.0,274.0,4000.0,-2617.0
4.0,0.0,-27.0,-88.0,-4000.0,185.0,4000.0,-2050.0
-20.0,14.0,-28.0,-51.0,-4000.0,118.0,4000.0,-2617.0
-37.0,-4.0,-32.0,-44.0,-4000.0,46.0,4000.0,-2759.0
-32.0,-22.0,-20.0,-39.0,-4000.0,17.0,4000.0,-2153.0
-34.0,-4.0,-33.0,-17.0,-2806.0,112.0,4000.0,-1404.0
-25.0,5.0,-11.0,-18.0,-1717.0,123.0,4000.0,-1055.0
1.0,-12.0,11.0,-9.0,-1915.0,123.0,4000.0,-940.0
-10.0,-12.0,31.0,-28.0,-2224.0,113.0,4000.0,-415.0
-14.0,-3.0,28.0,-9.0,-1685.0,142.0,4000.0,-195.0
-18.0,-21.0,24.0,10.0,-925.0,105.0,3683.0,296.0
14.0,-6.0,44.0,-2.0,-311.0,15.0,2956.0,597.0
-3.0,-21.0,28.0,12.0,-687.0,34.0,2357.0,788.0
-24.0,-17.0,12.0,-10.0,-1120.0,106.0,1931.0,896.0
0.0,-3.0,21.0,16.0,-659.0,230.0,1605.0,1012.0
-11.0,-7.0,10.0,15.0,-698.0,278.0,1070.0,1053.0
-5.0,-5.0,8.0,12.0,-883.0,248.0,326.0,938.0
-12.0,-12.0,21.0,23.0,159.0,189.0,-352.0,976.0
4.0,10.0,-6.0,36.0,2060.0,124.0,-1201.0,890.0
21.0,22.0,-26.0,54.0,3541.0,99.0,-1991.0,1053.0
15.0,27.0,-14.0,32.0,4000.0,129.0,-2506.0,1512.0
13.0,-6.0,-19.0,26.0,4000.0,101.0,-2886.0,1221.0
-16.0,-18.0,-14.0,15.0,4000.0,43.0,-3246.0,483.0
-40.0,-34.0,6.0,-4.0,4000.0,29.0,-3700.0,206.0
-25.0,-33.0,-5.0,1.0,3399.0,4.0,-4000.0,-279.0
-19.0,-7.0,17.0,-20.0,2296.0,-8.0,-4000.0,-704.0
3.0,12.0,2.0,-50.0,1657.0,12.0,-4000.0,-889.0
7.0,-7.0,-34.0,-84.0,1800.0,42.0,-4000.0,-683.0
-10.0,-14.0,-61.0,-120.0,2947.0,73.0,-4000.0,-340.0
-11.0,18.0,-72.0,-127.0,4000.0,115.0,-4000.0,136.0
-34.0,-19.0,-39.0,-82.0,4000.0,152.0,-4000.0,1156.0
-23.0,-3.0,-24.0,-65.0,4000.0,183.0,-4000.0,1065.0
-5.0,-17.0,-22.0,-82.0,4000.0,211.0,-4000.0,606.0
0.0,-26.0,-35.0,-67.0,2513.0,230.0,-4000.0,420.0
0.0,6.0,-37.0,-72.0,159.0,246.0,-4000.0,-467.0
-31.0,-21.0,-26.0,-63.0,-1528.0,271.0,-4000.0,-1256.0
-37.0,-12.0,-39.0,-35.0,-1729.0,296.0,-4000.0,-2049.0
-35.0,-27.0,-38.0,-34.0,-1116.0,290.0,-4000.0,-2676.0
-30.0,-46.0,-40.0,-34.0,-386.0,235.0,-4000.0,-3089.0
-31.0,-27.0,-45.0,-22.0,-107.0,203.0,-4000.0,-2812.0
-37.0,-21.0,-28.0,-6.0,111.0,195.0,-4000.0,-1998.0
-4.0,-14.0,-2.0,2.0,1905.0,138.0,-4000.0,-2016.0
-20.0,-3.0,-9.0,-1.0,4000.0,115.0,-3802.0,-1658.0
-20.0,2.0,-2.0,30.0,4000.0,119.0,-3379.0,-1148.0
-19.0,8.0,7.0,16.0,4000.0,132.0,-2951.0,-414.0
2.0,18.0,3.0,29.0,4000.0,115.0,-2610.0,1264.0
21.0,10.0,7.0,31.0,4000.0,102.0,-2237.0,2249.0
-3.0,-23.0,16.0,18.0,4000.0,92.0,-1914.0,1914.0
27.0,3.0,17.0,44.0,1579.0,106.0,-1804.0,1156.0
8.0,28.0,7.0,34.0,-2277.0,208.0,-1716.0,795.0
13.0,66.0,41.0,67.0,-4000.0,288.0,-1648.0,670.0
65.0,74.0,63.0,71.0,-4000.0,299.0,-1670.0,719.0
38.0,68.0,24.0,32.0,-4000.0,261.0,-1572.0,634.0
18.0,57.0,30.0,22.0,-4000.0,210.0,-1449.0,634.0
7.0,44.0,10.0,-2.0,-4000.0,220.0,-1201.0,497.0
-31.0,22.0,-13.0,-38.0,-4000.0,221.0,-933.0,218.0
-44.0,-27.0,24.0,-56.0,-4000.0,144.0,-676.0,-25.0
-55.0,-24.0,2.0,-23.0,-4000.0,136.0,-375.0,-453.0
-42.0,-6.0,-7.0,-30.0,-4000.0,91.0,-58.0,-861.0
-41.0,-23.0,-15.0,-44.0,-4000.0,30.0,303.0,-1065.0
-58.0,-54.0,-20.0,-35.0,-4000.0,2.0,749.0,-1105.0
-64.0,-36.0,-17.0,-18.0,-4000.0,-48.0,1164.0,-1339.0
-48.0,-19.0,-10.0,-21.0,-4000.0,-48.0,1548.0,-1404.0
-49.0,-26.0,-3.0,-29.0,-4000.0,-82.0,1908.0,-1642.0
-39.0,-32.0,18.0,-23.0,-3014.0,-67.0,2190.0,-2153.0
-2.0,-19.0,6.0,-14.0,20.0,-57.0,2440.0,-2153.0
-29.0,2.0,-7.0,-12.0,3529.0,-55.0,2570.0,-2114.0
15.0,15.0,-1.0,-31.0,4000.0,-26.0,2696.0,-1567.0
4.0,46.0,-20.0,-34.0,4000.0,-61.0,2777.0,-214.0
3.0,52.0,6.0,-40.0,4000.0,-94.0,2777.0,503.0
30.0,50.0,20.0,-28.0,4000.0,-162.0,2712.0,1077.0
-4.0,67.0,19.0,-21.0,4000.0,-236.0,2631.0,1651.0
-9.0,71.0,12.0,-16.0,4000.0,-277.0,2570.0,1789.0
-20.0,59.0,0.0,8.0,4000.0,-345.0,2492.0,2170.0
3.0,38.0,9.0,42.0,4000.0,-401.0,2426.0,2612.0
7.0,34.0,24.0,49.0,4000.0,-449.0,2322.0,2948.0
-4.0,13.0,34.0,30.0,4000.0,-501.0,2318.0,3328.0
-13.0,9.0,7.0,8.0,4000.0,-528.0,2255.0,3700.0
-11.0,-2.0,0.0,0.0,4000.0,-597.0,2190.0,3674.0
-11.0,-16.0,6.0,16.0,4000.0,-611.0,2179.0,3651.0
4.0,-10.0,-20.0,-13.0,4000.0,-575.0,2112.0,3976.0
24.0,11.0,-15.0,1.0,4000.0,-580.0,2061.0,3910.0
27.0,4.0,-10.0,-13.0,4000.0,-515.0,1996.0,3721.0
-8.0,15.0,-4.0,-42.0,4000.0,-471.0,1931.0,4000.0
-16.0,-1.0,4.0,-38.0,3989.0,-445.0,1906.0,4000.0
24.0,6.0,-31.0,-51.0,2907.0,-383.0,1800.0,4000.0
8.0,41.0,-32.0,-45.0,1189.0,-314.0,1658.0,4000.0
-13.0,27.0,-10.0,-59.0,-728.0,-249.0,1483.0,3014.0
15.0,27.0,-14.0,-41.0,-2247.0,-224.0,1313.0,922.0
-7.0,10.0,-26.0,-42.0,-3327.0,-145.0,1143.0,-809.0
10.0,10.0,-6.0,-22.0,-3943.0,-47.0,962.0,-1969.0
8.0,-2.0,7.0,-2.0,-4000.0,67.0,779.0,-2747.0
-30.0,-14.0,-11.0,3.0,-4000.0,171.0,620.0,-3007.0
-25.0,-2.0,-40.0,-32.0,-4000.0,264.0,551.0,-2360.0
-46.0,-17.0,-36.0,-53.0,-4000.0,355.0,506.0,-2063.0
-39.0,-23.0,-17.0,-16.0,-4000.0,414.0,368.0,-2244.0
-59.0,-25.0,-25.0,-22.0,-4000.0,462.0,268.0,-3133.0
-47.0,-10.0,-8.0,-32.0,-4000.0,498.0,159.0,-4000.0
-12.0,-1.0,-28.0,-77.0,-4000.0,563.0,34.0,-4000.0
0.0,11.0,-37.0,-78.0,-4000.0,628.0,-101.0,-4000.0
-9.0,-4.0,-42.0,-61.0,-4000.0,701.0,-277.0,-4000.0
-38.0,-31.0,-18.0,-87.0,-4000.0,831.0,-379.0,-4000.0
-36.0,-26.0,-20.0,-86.0,-3107.0,896.0,-465.0,-2567.0
-45.0,-68.0,-37.0,-72.0,-2651.0,867.0,-527.0,-791.0
-89.0,-162.0,-8.0,-22.0,-2139.0,877.0,-638.0,1020.0
-109.0,-151.0,-13.0,0.0,-1117.0,805.0,-676.0,3552.0
-59.0,-72.0,-13.0,9.0,-268.0,597.0,-717.0,3067.0
-26.0,-29.0,-22.0,7.0,259.0,368.0,-839.0,1399.0
-26.0,-35.0,-24.0,-24.0,857.0,99.0,-837.0,863.0
-10.0,-14.0,-21.0,3.0,1344.0,-184.0,-891.0,258.0
9.0,20.0,8.0,11.0,2047.0,-464.0,-966.0,-141.0
18.0,34.0,25.0,-14.0,2760.0,-722.0,-998.0,-506.0
20.0,56.0,8.0,43.0,3399.0,-973.0,-1011.0,-685.0
31.0,60.0,17.0,50.0,3733.0,-1135.0,-986.0,-628.0
40.0,37.0,34.0,46.0,4000.0,-1265.0,-933.0,-614.0
50.0,56.0,21.0,80.0,4000.0,-1376.0,-867.0,-517.0
20.0,84.0,20.0,18.0,4000.0,-1421.0,-811.0,-539.0
10.0,75.0,6.0,16.0,4000.0,-1447.0,-741.0,-492.0
12.0,75.0,-2.0,27.0,4000.0,-1442.0,-652.0,-537.0
27.0,82.0,23.0,35.0,4000.0,-1421.0,-555.0,-547.0
43.0,95.0,17.0,30.0,4000.0,-1330.0,-469.0,-553.0
18.0,95.0,6.0,-5.0,4000.0,-1257.0,-384.0,-627.0
20.0,83.0,6.0,-7.0,4000.0,-1168.0,-334.0,-627.0
14.0,60.0,1.0,-22.0,4000.0,-1062.0,-290.0,-604.0
31.0,48.0,-17.0,-42.0,4000.0,-964.0,-244.0,-455.0
25.0,-7.0,-10.0,-55.0,4000.0,-838.0,-214.0,-397.0
1.0,-40.0,-22.0,-38.0,4000.0,-750.0,-209.0,-427.0
25.0,-10.0,-23.0,-45.0,4000.0,-676.0,-187.0,-435.0
11.0,-1.0,-8.0,-49.0,4000.0,-647.0,-180.0,-467.0
0.0,-43.0,-16.0,-29.0,4000.0,-637.0,-136.0,-467.0
0.0,-23.0,4.0,-20.0,4000.0,-593.0,-110.0,-411.0
-32.0,-32.0,-7.0,-42.0,4000.0,-555.0,-73.0,-91.0
-11.0,-44.0,-21.0,-32.0,4000.0,-565.0,25.0,383.0
-6.0,-9.0,2.0,12.0,4000.0,-528.0,87.0,328.0
-24.0,-10.0,13.0,10.0,4000.0,-531.0,185.0,190.0
-23.0,-28.0,-13.0,22.0,4000.0,-531.0,249.0,177.0
-14.0,-18.0,-17.0,-21.0,4000.0,-474.0,321.0,-162.0
-2.0,1.0,-18.0,-18.0,4000.0,-485.0,391.0,-211.0
-21.0,-28.0,-14.0,0.0,4000.0,-442.0,464.0,-169.0
-7.0,-16.0,-15.0,-15.0,4000.0,-362.0,506.0,-130.0
-9.0,1.0,-26.0,18.0,4000.0,-293.0,555.0,-75.0
-17.0,16.0,-13.0,5.0,4000.0,-204.0,637.0,12.0
-7.0,3.0,-17.0,2.0,4000.0,-125.0,628.0,296.0
-7.0,4.0,-20.0,-26.0,4000.0,-91.0,684.0,341.0
-2.0,34.0,-3.0,-41.0,4000.0,-83.0,693.0,332.0
-7.0,33.0,12.0,-23.0,4000.0,-76.0,759.0,544.0
1.0,40.0,18.0,-16.0,4000.0,-53.0,812.0,615.0
-20.0,34.0,32.0,-10.0,4000.0,-37.0,746.0,499.0
-15.0,23.0,11.0,-23.0,3462.0,-67.0,749.0,499.0
15.0,0.0,19.0,-16.0,2695.0,-41.0,755.0,426.0
-25.0,2.0,5.0,-7.0,1995.0,27.0,738.0,434.0
-23.0,5.0,-14.0,-19.0,1213.0,124.0,692.0,541.0
-45.0,-11.0,-11.0,-28.0,615.0,199.0,665.0,700.0
-45.0,-7.0,-34.0,-19.0,-262.0,289.0,607.0,727.0
-20.0,-20.0,-13.0,-36.0,-1333.0,408.0,531.0,452.0
-18.0,5.0,-25.0,-41.0,-2450.0,520.0,472.0,264.0
-21.0,-24.0,-31.0,-35.0,-3327.0,628.0,426.0,67.0
-54.0,-27.0,-17.0,-36.0,-3929.0,743.0,335.0,13.0
-41.0,-15.0,-21.0,-11.0,-4000.0,866.0,261.0,-36.0
-36.0,-35.0,-22.0,-16.0,-4000.0,941.0,228.0,-89.0
-20.0,-33.0,-9.0,-23.0,-4000.0,1018.0,155.0,-138.0
-8.0,-33.0,-13.0,-59.0,-4000.0,1063.0,100.0,-218.0
-5.0,-16.0,-11.0,-39.0,-4000.0,1083.0,69.0,-183.0
-12.0,-23.0,-10.0,-34.0,-4000.0,1121.0,67.0,-175.0
-24.0,-20.0,-11.0,-26.0,-4000.0,1136.0,-11.0,-202.0
-10.0,-29.0,-17.0,-17.0,-4000.0,1118.0,-38.0,-248.0
-5.0,-32.0,-4.0,-28.0,-4000.0,1071.0,-40.0,-159.0
-18.0,-26.0,15.0,-43.0,-4000.0,1077.0,-69.0,61.0
-19.0,0.0,-1.0,-52.0,-4000.0,1136.0,-63.0,131.0
-16.0,4.0,-2.0,-30.0,-4000.0,1273.0,-137.0,23.0
0.0,-13.0,-6.0,-25.0,-4000.0,1405.0,-171.0,14.0
-16.0,3.0,5.0,14.0,-4000.0,1482.0,-188.0,-42.0
2.0,5.0,6.0,12.0,-4000.0,1601.0,-204.0,-68.0
27.0,24.0,8.0,25.0,-4000.0,1644.0,-217.0,-53.0
6.0,10.0,10.0,39.0,-4000.0,1579.0,-233.0,-93.0
-7.0,9.0,2.0,26.0,-4000.0,1488.0,-272.0,-131.0
19.0,37.0,26.0,22.0,-4000.0,1398.0,-275.0,-151.0
33.0,38.0,4.0,16.0,-4000.0,1254.0,-284.0,-206.0
4.0,30.0,5.0,15.0,-4000.0,1083.0,-310.0,-323.0
7.0,19.0,-4.0,16.0,-4000.0,896.0,-308.0,-334.0
18.0,24.0,11.0,-14.0,-4000.0,674.0,-304.0,-362.0
7.0,31.0,20.0,-22.0,-4000.0,418.0,-318.0,-382.0
15.0,31.0,-2.0,-12.0,-4000.0,209.0,-284.0,-380.0
-14.0,29.0,24.0,-34.0,-4000.0,17.0,-280.0,-362.0
-14.0,34.0,7.0,-31.0,-4000.0,-180.0,-317.0,-348.0
7.0,3.0,-7.0,-37.0,-4000.0,-308.0,-241.0,-332.0
-7.0,-1.0,0.0,-72.0,-4000.0,-394.0,-241.0,-329.0
-29.0,11.0,8.0,-74.0,-4000.0,-449.0,-250.0,-354.0
-33.0,17.0,19.0,-40.0,-4000.0,-511.0,-241.0,-269.0
-24.0,12.0,-8.0,3.0,-4000.0,-602.0,-205.0,-63.0
-4.0,-2.0,-20.0,-15.0,-3767.0,-712.0,-171.0,213.0
9.0,-2.0,-50.0,-25.0,-3127.0,-810.0,-151.0,83.0
-12.0,-10.0,-33.0,-4.0,-2676.0,-911.0,-91.0,-370.0
2.0,11.0,6.0,-12.0,-2016.0,-1005.0,-81.0,-247.0
-18.0,-16.0,-4.0,-12.0,-924.0,-1107.0,-37.0,24.0
-26.0,-24.0,-10.0,-29.0,-172.0,-1186.0,-22.0,40.0
-4.0,-16.0,-22.0,-44.0,123.0,-1249.0,-6.0,137.0
-25.0,-37.0,-11.0,-61.0,473.0,-1302.0,4.0,196.0
-11.0,-5.0,-15.0,-80.0,660.0,-1330.0,12.0,201.0
8.0,-16.0,-28.0,-94.0,651.0,-1357.0,32.0,83.0
15.0,-26.0,-5.0,-53.0,701.0,-1247.0,44.0,25.0
3.0,7.0,11.0,-4.0,771.0,-1118.0,54.0,-175.0
-5.0,-12.0,-2.0,-19.0,856.0,-1010.0,62.0,-490.0
11.0,12.0,-17.0,24.0,1128.0,-928.0,84.0,-638.0
21.0,28.0,-5.0,42.0,1114.0,-896.0,92.0,-638.0
15.0,19.0,6.0,38.0,1053.0,-857.0,129.0,-753.0
-12.0,28.0,11.0,66.0,1380.0,-875.0,151.0,-875.0
-2.0,47.0,-1.0,50.0,1721.0,-867.0,154.0,-553.0
9.0,38.0,12.0,26.0,1995.0,-875.0,140.0,-317.0
0.0,17.0,39.0,34.0,2359.0,-831.0,120.0,-152.0
2.0,20.0,21.0,64.0,2646.0,-676.0,170.0,235.0
17.0,28.0,27.0,39.0,2748.0,-521.0,193.0,387.0
14.0,20.0,39.0,23.0,2862.0,-322.0,148.0,-63.0
-18.0,-10.0,11.0,34.0,3167.0,-112.0,146.0,-665.0
-16.0,-13.0,7.0,22.0,3541.0,118.0,149.0,-1404.0
-5.0,1.0,-5.0,23.0,3657.0,321.0,140.0,-1372.0
-3.0,21.0,-35.0,32.0,3232.0,554.0,102.0,-665.0
13.0,9.0,-6.0,61.0,2695.0,793.0,61.0,-56.0
-12.0,-3.0,-32.0,38.0,2630.0,953.0,74.0,409.0
-19.0,33.0,-33.0,-18.0,2578.0,1083.0,74.0,334.0
-8.0,22.0,-17.0,-40.0,2428.0,1254.0,73.0,282.0
-13.0,29.0,-43.0,-41.0,2484.0,1443.0,107.0,224.0
-2.0,62.0,-26.0,-63.0,2321.0,1482.0,127.0,461.0
4.0,49.0,-29.0,-53.0,2189.0,1452.0,98.0,373.0
-27.0,43.0,-33.0,-56.0,2057.0,1314.0,100.0,148.0
-52.0,0.0,-27.0,-78.0,2085.0,1157.0,134.0,247.0
-53.0,-31.0,-48.0,-31.0,1710.0,1098.0,133.0,465.0
-86.0,-38.0,-62.0,-8.0,1533.0,1018.0,138.0,629.0
-77.0,-41.0,-57.0,-4.0,1409.0,1026.0,140.0,564.0
-19.0,-18.0,-63.0,-9.0,1142.0,928.0,143.0,526.0
-17.0,-26.0,-42.0,1.0,1205.0,766.0,151.0,178.0
-29.0,-20.0,-17.0,-24.0,1097.0,687.0,161.0,329.0
-34.0,-20.0,-21.0,-38.0,920.0,558.0,152.0,876.0
-26.0,6.0,-12.0,2.0,801.0,522.0,107.0,1334.0
9.0,12.0,-1.0,-16.0,1077.0,460.0,82.0,1248.0
4.0,-11.0,-1.0,-26.0,823.0,415.0,53.0,1091.0
28.0,8.0,-5.0,-36.0,480.0,455.0,28.0,1063.0
20.0,-5.0,-3.0,-21.0,444.0,510.0,5.0,629.0
5.0,-18.0,24.0,-49.0,190.0,550.0,-13.0,612.0
13.0,-7.0,18.0,-66.0,144.0,561.0,-37.0,955.0
4.0,-32.0,23.0,-33.0,235.0,563.0,-50.0,1257.0
-5.0,-42.0,15.0,-44.0,212.0,523.0,-42.0,1281.0
-4.0,-35.0,42.0,12.0,69.0,510.0,-63.0,1456.0
9.0,-7.0,53.0,24.0,-8.0,554.0,-74.0,1639.0
28.0,-22.0,48.0,4.0,34.0,563.0,-91.0,1977.0
18.0,-55.0,67.0,6.0,29.0,477.0,-95.0,2107.0
18.0,-30.0,35.0,-11.0,-263.0,329.0,-130.0,1924.0
4.0,-11.0,48.0,-40.0,-460.0,124.0,-157.0,1781.0
-10.0,4.0,66.0,-62.0,-483.0,-144.0,-178.0,1704.0
21.0,3.0,65.0,-90.0,-621.0,-347.0,-195.0,1859.0
-20.0,27.0,64.0,-123.0,-681.0,-516.0,-196.0,1595.0
-13.0,21.0,52.0,-110.0,-738.0,-767.0,-195.0,1317.0
-16.0,24.0,71.0,-118.0,-665.0,-831.0,-184.0,1207.0
-21.0,29.0,66.0,-133.0,-434.0,-743.0,-191.0,1077.0
-28.0,-5.0,49.0,-173.0,-262.0,-741.0,-190.0,719.0
-29.0,2.0,50.0,-196.0,180.0,-657.0,-200.0,459.0
-28.0,-7.0,38.0,-133.0,505.0,-597.0,-190.0,526.0
-48.0,16.0,36.0,-108.0,389.0,-535.0,-185.0,531.0
-28.0,-5.0,48.0,-96.0,664.0,-541.0,-188.0,608.0
-48.0,-23.0,26.0,-29.0,1050.0,-546.0,-167.0,474.0
-52.0,17.0,15.0,24.0,1148.0,-449.0,-161.0,258.0
-39.0,27.0,-1.0,2.0,1279.0,-472.0,-161.0,53.0
-41.0,18.0,-20.0,10.0,1417.0,-485.0,-155.0,132.0
-45.0,29.0,-45.0,13.0,1669.0,-349.0,-152.0,267.0
-53.0,41.0,-71.0,26.0,1938.0,-76.0,-159.0,186.0
-43.0,20.0,-87.0,55.0,1865.0,-20.0,-134.0,125.0
-22.0,34.0,-111.0,64.0,1710.0,-167.0,-112.0,50.0
-6.0,44.0,-71.0,42.0,1734.0,-106.0,-118.0,62.0
20.0,31.0,-87.0,30.0,1511.0,21.0,-75.0,63.0
16.0,46.0,-78.0,55.0,1466.0,-29.0,-81.0,65.0
8.0,71.0,-64.0,22.0,1509.0,-50.0,-79.0,63.0
-15.0,59.0,-85.0,32.0,1222.0,-2.0,-59.0,35.0
-17.0,75.0,-74.0,63.0,1205.0,54.0,-61.0,59.0
18.0,90.0,-66.0,75.0,1352.0,141.0,-52.0,66.0
28.0,79.0,-62.0,85.0,1509.0,119.0,-45.0,74.0
16.0,71.0,-69.0,81.0,1292.0,5.0,-26.0,40.0
10.0,74.0,-51.0,64.0,1395.0,-66.0,-43.0,-44.0
-19.0,64.0,-50.0,55.0,1482.0,41.0,-50.0,-108.0
-29.0,1.0,-31.0,61.0,1248.0,162.0,-16.0,-168.0
-21.0,-36.0,-33.0,59.0,1201.0,154.0,-17.0,-232.0
2.0,-56.0,-57.0,50.0,1083.0,286.0,-19.0,-305.0
-14.0,-53.0,-29.0,56.0,961.0,441.0,9.0,-394.0
-38.0,-67.0,-19.0,43.0,837.0,339.0,-12.0,-484.0
-35.0,-121.0,-30.0,31.0,766.0,189.0,-24.0,-479.0
-52.0,-114.0,-13.0,12.0,489.0,25.0,-23.0,-539.0
-29.0,-79.0,-17.0,12.0,298.0,-82.0,-7.0,-562.0
-9.0,-70.0,-46.0,3.0,80.0,-193.0,-27.0,-589.0
4.0,-67.0,-29.0,-24.0,-91.0,-340.0,-25.0,-620.0
-11.0,-41.0,23.0,-29.0,166.0,-200.0,15.0,-599.0
16.0,-13.0,18.0,-6.0,83.0,-358.0,-8.0,-620.0
24.0,-22.0,15.0,6.0,80.0,-816.0,7.0,-592.0
15.0,-13.0,15.0,-15.0,237.0,-580.0,26.0,-563.0
-8.0,1.0,-20.0,0.0,270.0,-161.0,38.0,-584.0
-22.0,-20.0,-6.0,-6.0,367.0,-362.0,38.0,-577.0
-10.0,-7.0,-2.0,-13.0,346.0,-548.0,4.0,-549.0
-11.0,18.0,-10.0,-23.0,340.0,-322.0,8.0,-557.0
16.0,46.0,12.0,-39.0,314.0,-173.0,24.0,-601.0
-8.0,46.0,9.0,-21.0,302.0,-414.0,46.0,-610.0
3.0,22.0,7.0,-34.0,241.0,-354.0,62.0,-563.0
-12.0,30.0,-12.0,-41.0,49.0,84.0,52.0,-483.0
-23.0,21.0,15.0,-45.0,32.0,315.0,47.0,-457.0
16.0,1.0,7.0,-48.0,-9.0,339.0,30.0,-443.0
-2.0,-19.0,-5.0,-56.0,-174.0,283.0,32.0,-455.0
-13.0,-48.0,38.0,-54.0,-327.0,90.0,35.0,-427.0
-9.0,-11.0,17.0,-16.0,-681.0,-293.0,7.0,-409.0
-10.0,-12.0,14.0,4.0,-1114.0,-348.0,0.0,-427.0
0.0,-1.0,27.0,34.0,-1207.0,-284.0,12.0,-385.0
15.0,36.0,35.0,46.0,-1185.0,-703.0,12.0,-362.0
20.0,26.0,36.0,5.0,-1263.0,-875.0,1.0,-357.0
13.0,21.0,33.0,-2.0,-1333.0,-600.0,-35.0,-386.0
-1.0,-3.0,39.0,-11.0,-1385.0,-220.0,-28.0,-366.0
4.0,38.0,0.0,-43.0,-1398.0,-204.0,-20.0,-360.0
1.0,55.0,-17.0,-60.0,-1292.0,-489.0,-25.0,-362.0
-6.0,5.0,-25.0,-65.0,-1318.0,-417.0,-26.0,-334.0
-39.0,4.0,-50.0,-112.0,-1320.0,-439.0,-19.0,-356.0
-29.0,-3.0,-45.0,-130.0,-1374.0,-448.0,-3.0,-339.0
-1.0,9.0,-11.0,-68.0,-1390.0,-455.0,-34.0,-324.0
-32.0,-15.0,2.0,-81.0,-1179.0,-226.0,-23.0,-339.0
-36.0,-37.0,-6.0,-86.0,-1077.0,267.0,7.0,-334.0
-16.0,-27.0,-20.0,-62.0,-1072.0,589.0,24.0,-334.0
-19.0,-27.0,-5.0,-82.0,-1186.0,725.0,24.0,-305.0
-6.0,-12.0,0.0,-62.0,-1267.0,660.0,42.0,-297.0
12.0,-6.0,5.0,-54.0,-1055.0,563.0,79.0,-269.0
-8.0,20.0,14.0,-70.0,-677.0,217.0,81.0,-264.0
5.0,25.0,14.0,-76.0,-189.0,-169.0,107.0,-280.0
21.0,17.0,18.0,-60.0,58.0,-305.0,120.0,-223.0
2.0,40.0,8.0,-22.0,140.0,-261.0,122.0,-192.0
9.0,38.0,12.0,18.0,279.0,-6.0,156.0,-189.0
5.0,46.0,21.0,52.0,275.0,449.0,176.0,-166.0
14.0,25.0,4.0,37.0,265.0,592.0,197.0,-156.0
14.0,18.0,13.0,44.0,143.0,510.0,208.0,-150.0
-28.0,6.0,44.0,44.0,188.0,514.0,208.0,-120.0
-36.0,0.0,42.0,51.0,680.0,526.0,217.0,-105.0
1.0,33.0,20.0,65.0,766.0,725.0,205.0,-98.0
-6.0,6.0,19.0,42.0,509.0,858.0,214.0,-66.0
-20.0,21.0,31.0,27.0,505.0,758.0,207.0,-42.0
12.0,36.0,29.0,16.0,167.0,586.0,203.0,-32.0
-18.0,20.0,19.0,10.0,-204.0,571.0,244.0,-26.0
0.0,28.0,31.0,-2.0,-334.0,669.0,238.0,-3.0
-13.0,40.0,43.0,-9.0,-421.0,684.0,219.0,-15.0
-11.0,34.0,10.0,-38.0,-521.0,526.0,189.0,-51.0
21.0,1.0,-6.0,-23.0,-983.0,498.0,178.0,-62.0
9.0,16.0,23.0,-25.0,-1292.0,355.0,181.0,-79.0
0.0,3.0,-12.0,-44.0,-1588.0,26.0,124.0,-128.0
