-138.0,-210.0,-104.0,-153.0,-95.0,-141.0,-135.0,-226.0
-155.0,-258.0,-118.0,-137.0,-70.0,-110.0,-148.0,-228.0
-120.0,-208.0,-143.0,-152.0,-74.0,-150.0,-162.0,-226.0
-119.0,-230.0,-139.0,-160.0,-95.0,-255.0,-146.0,-245.0
-111.0,-247.0,-129.0,-172.0,-123.0,-266.0,-172.0,-240.0
-126.0,-236.0,-138.0,-182.0,-191.0,-336.0,-169.0,-259.0
-168.0,-247.0,-149.0,-172.0,-218.0,-331.0,-157.0,-223.0
-162.0,-200.0,-147.0,-180.0,-212.0,-162.0,-147.0,-169.0
-85.0,-181.0,-125.0,-173.0,-163.0,-95.0,-139.0,-161.0
-54.0,-136.0,-116.0,-172.0,-73.0,-51.0,-143.0,-90.0
-9.0,-103.0,-96.0,-160.0,-13.0,-30.0,-94.0,-32.0
32.0,-88.0,-64.0,-119.0,24.0,-83.0,-88.0,-11.0
13.0,-20.0,-51.0,-97.0,60.0,-12.0,-63.0,14.0
6.0,8.0,-60.0,-76.0,72.0,-6.0,-40.0,27.0
5.0,15.0,-51.0,-63.0,119.0,-7.0,-30.0,38.0
-6.0,-13.0,-42.0,-53.0,103.0,-12.0,-11.0,79.0
5.0,-64.0,-16.0,-15.0,41.0,-30.0,-11.0,87.0
-9.0,-85.0,0.0,-47.0,21.0,2.0,-3.0,76.0
-71.0,-86.0,-20.0,-40.0,12.0,6.0,12.0,103.0
-74.0,-16.0,3.0,-2.0,55.0,18.0,21.0,131.0
-25.0,21.0,19.0,-16.0,119.0,6.0,48.0,148.0
51.0,25.0,20.0,17.0,133.0,83.0,66.0,168.0
78.0,63.0,24.0,37.0,77.0,91.0,81.0,201.0
21.0,54.0,32.0,34.0,5.0,83.0,90.0,218.0
17.0,51.0,36.0,38.0,-58.0,95.0,104.0,207.0
62.0,74.0,37.0,59.0,-48.0,79.0,127.0,224.0
110.0,106.0,47.0,50.0,-19.0,70.0,143.0,230.0
95.0,114.0,38.0,38.0,-8.0,81.0,154.0,224.0
90.0,115.0,73.0,81.0,-22.0,101.0,165.0,207.0
86.0,103.0,67.0,81.0,-45.0,83.0,163.0,210.0
44.0,139.0,67.0,72.0,-46.0,81.0,149.0,239.0
33.0,180.0,95.0,62.0,-72.0,81.0,152.0,225.0
2.0,174.0,73.0,69.0,-66.0,103.0,168.0,222.0
-8.0,152.0,76.0,76.0,-75.0,38.0,164.0,255.0
20.0,87.0,64.0,90.0,-54.0,47.0,153.0,264.0
56.0,99.0,61.0,91.0,-27.0,123.0,153.0,271.0
82.0,145.0,80.0,71.0,-45.0,54.0,139.0,210.0
68.0,160.0,51.0,59.0,-16.0,33.0,120.0,188.0
67.0,148.0,53.0,37.0,1.0,2.0,109.0,194.0
82.0,132.0,30.0,49.0,36.0,-2.0,102.0,165.0
80.0,95.0,18.0,45.0,61.0,14.0,89.0,161.0
49.0,28.0,20.0,40.0,18.0,-15.0,81.0,119.0
11.0,-1.0,27.0,31.0,13.0,-72.0,66.0,230.0
-5.0,-27.0,42.0,39.0,5.0,-92.0,58.0,324.0
-33.0,-10.0,53.0,51.0,0.0,-32.0,90.0,207.0
-38.0,-12.0,24.0,64.0,4.0,-17.0,68.0,145.0
-8.0,8.0,2.0,40.0,-16.0,-50.0,63.0,155.0
20.0,56.0,27.0,10.0,-38.0,-67.0,66.0,213.0
18.0,80.0,21.0,9.0,-73.0,14.0,60.0,151.0
27.0,93.0,9.0,8.0,-75.0,35.0,73.0,-71.0
43.0,95.0,23.0,19.0,-80.0,46.0,67.0,-177.0
44.0,56.0,15.0,-7.0,-49.0,21.0,63.0,-84.0
17.0,36.0,2.0,0.0,-52.0,-83.0,60.0,10.0
11.0,56.0,-2.0,13.0,-89.0,-70.0,48.0,-91.0
30.0,55.0,10.0,-15.0,-69.0,-40.0,53.0,-166.0
7.0,78.0,1.0,-11.0,-77.0,12.0,41.0,-345.0
-37.0,52.0,-15.0,-9.0,-32.0,19.0,31.0,-340.0
-37.0,49.0,-1.0,-17.0,-3.0,13.0,46.0,-80.0
-21.0,28.0,-21.0,-9.0,50.0,42.0,42.0,-46.0
-25.0,-11.0,-9.0,-13.0,109.0,44.0,21.0,-30.0
27.0,-13.0,9.0,-16.0,114.0,65.0,12.0,-10.0
25.0,-14.0,0.0,-14.0,159.0,-13.0,32.0,10.0
9.0,-3.0,-9.0,-39.0,154.0,-64.0,17.0,79.0
-9.0,-34.0,-17.0,-28.0,145.0,-77.0,25.0,239.0
-46.0,-35.0,-4.0,-18.0,155.0,-36.0,34.0,332.0
-49.0,-26.0,-5.0,-17.0,174.0,-26.0,10.0,192.0
-34.0,3.0,-12.0,-13.0,164.0,-67.0,10.0,102.0
21.0,30.0,-17.0,-25.0,153.0,-67.0,33.0,-29.0
27.0,24.0,-15.0,-21.0,103.0,-32.0,23.0,-224.0
-4.0,6.0,-14.0,-30.0,77.0,21.0,17.0,-401.0
-90.0,-42.0,-8.0,-25.0,119.0,-23.0,37.0,-638.0
-109.0,-36.0,8.0,4.0,74.0,-33.0,9.0,-724.0
-45.0,-11.0,-14.0,-10.0,85.0,-61.0,15.0,-484.0
-49.0,8.0,-37.0,-5.0,112.0,-13.0,33.0,-183.0
-13.0,43.0,-22.0,-9.0,137.0,45.0,23.0,-205.0
-40.0,-4.0,-16.0,-15.0,162.0,40.0,17.0,-195.0
-117.0,-32.0,-38.0,-15.0,129.0,45.0,10.0,-198.0
-105.0,-38.0,-17.0,-36.0,157.0,1.0,6.0,-252.0
-32.0,-15.0,-37.0,-59.0,148.0,-3.0,-14.0,-232.0
-53.0,-59.0,-57.0,-67.0,112.0,38.0,-35.0,-274.0
-90.0,-96.0,-27.0,-66.0,104.0,16.0,-26.0,-240.0
-25.0,-64.0,-60.0,-97.0,83.0,-72.0,-20.0,-269.0
5.0,-66.0,-44.0,-68.0,80.0,-120.0,-39.0,-290.0
27.0,-19.0,1.0,-31.0,66.0,-129.0,-29.0,-207.0
56.0,-18.0,-5.0,-47.0,47.0,30.0,-3.0,-163.0
116.0,-3.0,-5.0,-33.0,41.0,141.0,-10.0,-232.0
80.0,-7.0,-11.0,-34.0,26.0,172.0,-11.0,-257.0
12.0,-28.0,0.0,-19.0,36.0,203.0,-6.0,-273.0
-14.0,-2.0,-12.0,-22.0,72.0,88.0,5.0,-286.0
-32.0,0.0,-9.0,-5.0,46.0,16.0,-12.0,-257.0
24.0,21.0,11.0,1.0,-3.0,-26.0,-10.0,-284.0
11.0,18.0,24.0,2.0,16.0,-52.0,12.0,-269.0
1.0,-14.0,17.0,8.0,2.0,-101.0,18.0,-284.0
4.0,-23.0,31.0,-15.0,-37.0,-84.0,6.0,-254.0
-59.0,-23.0,39.0,-3.0,-67.0,35.0,-9.0,-248.0
-113.0,-19.0,7.0,-14.0,-66.0,106.0,-2.0,-251.0
-26.0,13.0,27.0,-25.0,-88.0,194.0,7.0,-228.0
23.0,37.0,1.0,-7.0,-95.0,163.0,17.0,-232.0
-135.0,15.0,-12.0,-19.0,-70.0,101.0,15.0,-201.0
-215.0,26.0,10.0,-5.0,-69.0,170.0,28.0,-206.0
-162.0,24.0,-6.0,10.0,-59.0,84.0,38.0,-232.0
-27.0,-4.0,-13.0,0.0,-54.0,-1.0,14.0,-221.0
64.0,52.0,-8.0,-10.0,-85.0,42.0,-4.0,-217.0
81.0,7.0,-3.0,-15.0,-92.0,-54.0,9.0,-201.0
14.0,-38.0,-18.0,-22.0,-132.0,-54.0,13.0,-189.0
92.0,21.0,-17.0,-23.0,-144.0,-74.0,-14.0,-189.0
155.0,16.0,-38.0,-21.0,-102.0,-92.0,17.0,-153.0
27.0,34.0,-23.0,-7.0,-81.0,-8.0,4.0,-156.0
60.0,34.0,-29.0,-32.0,-60.0,-8.0,-15.0,-126.0
3.0,43.0,-49.0,-25.0,-48.0,16.0,-2.0,-69.0
-64.0,9.0,14.0,-12.0,-46.0,30.0,17.0,-53.0
-62.0,-47.0,-7.0,-23.0,-38.0,9.0,37.0,-33.0
-117.0,-89.0,5.0,-11.0,-35.0,20.0,45.0,1.0
-171.0,-105.0,10.0,-5.0,-37.0,64.0,27.0,197.0
-248.0,-64.0,-21.0,-2.0,-23.0,93.0,19.0,357.0
-193.0,5.0,-11.0,-23.0,-14.0,119.0,48.0,213.0
-114.0,31.0,-13.0,-9.0,3.0,155.0,50.0,200.0
-90.0,3.0,10.0,-2.0,42.0,105.0,47.0,182.0
-51.0,20.0,0.0,-8.0,77.0,-22.0,28.0,74.0
116.0,63.0,-8.0,9.0,126.0,-17.0,24.0,12.0
325.0,52.0,-14.0,12.0,126.0,77.0,25.0,-154.0
316.0,10.0,-26.0,-8.0,113.0,22.0,18.0,-274.0
176.0,2.0,-11.0,-42.0,123.0,35.0,10.0,-136.0
143.0,-21.0,-44.0,-24.0,93.0,54.0,-7.0,212.0
245.0,14.0,-29.0,-13.0,106.0,91.0,-8.0,260.0
69.0,8.0,-14.0,-16.0,137.0,213.0,4.0,243.0
-132.0,-47.0,-29.0,-26.0,139.0,144.0,19.0,283.0
-215.0,-75.0,-12.0,-55.0,141.0,129.0,-13.0,341.0
-474.0,-90.0,-22.0,-52.0,102.0,152.0,-32.0,471.0
-584.0,0.0,-30.0,-32.0,89.0,104.0,-7.0,395.0
0.0,0.0,-29.0,-44.0,100.0,139.0,-9.0,361.0
724.0,-3.0,12.0,-35.0,102.0,115.0,-1.0,264.0
644.0,-35.0,-1.0,-29.0,118.0,107.0,10.0,241.0
50.0,-34.0,6.0,-45.0,109.0,115.0,14.0,235.0
-461.0,17.0,2.0,-14.0,129.0,102.0,9.0,134.0
-453.0,50.0,-11.0,-17.0,142.0,90.0,-16.0,133.0
-170.0,66.0,-11.0,-40.0,135.0,94.0,3.0,254.0
49.0,-53.0,-6.0,-28.0,154.0,102.0,21.0,434.0
334.0,-50.0,17.0,-16.0,166.0,76.0,25.0,422.0
399.0,-1.0,-10.0,-14.0,123.0,57.0,10.0,434.0
192.0,-36.0,3.0,-10.0,98.0,57.0,-1.0,434.0
-54.0,-7.0,11.0,4.0,102.0,67.0,20.0,453.0
-445.0,19.0,8.0,-17.0,101.0,81.0,-10.0,603.0
-750.0,-3.0,11.0,-9.0,104.0,107.0,12.0,658.0
-172.0,4.0,-3.0,6.0,103.0,107.0,22.0,621.0
318.0,43.0,12.0,1.0,129.0,119.0,4.0,548.0
276.0,16.0,14.0,-6.0,132.0,124.0,19.0,473.0
543.0,15.0,-16.0,-14.0,137.0,101.0,33.0,406.0
538.0,1.0,-12.0,2.0,147.0,124.0,46.0,329.0
322.0,7.0,3.0,-1.0,155.0,126.0,22.0,137.0
543.0,28.0,16.0,37.0,182.0,131.0,29.0,133.0
517.0,64.0,9.0,51.0,177.0,103.0,50.0,377.0
-14.0,40.0,-8.0,25.0,179.0,1.0,35.0,434.0
-248.0,-3.0,-14.0,31.0,162.0,-48.0,32.0,389.0
-540.0,31.0,-11.0,-1.0,119.0,80.0,28.0,420.0
-936.0,-22.0,-14.0,-21.0,101.0,126.0,13.0,394.0
-1162.0,-6.0,-21.0,-40.0,85.0,100.0,19.0,387.0
-957.0,21.0,-32.0,-75.0,22.0,98.0,11.0,321.0
-141.0,52.0,-26.0,-49.0,33.0,-20.0,-6.0,194.0
80.0,87.0,-11.0,-34.0,41.0,39.0,8.0,228.0
-86.0,46.0,-22.0,-62.0,34.0,51.0,17.0,267.0
-282.0,18.0,-17.0,-34.0,64.0,4.0,13.0,199.0
-641.0,-33.0,-22.0,-32.0,49.0,88.0,11.0,252.0
-637.0,18.0,-22.0,1.0,81.0,86.0,10.0,203.0
-296.0,9.0,3.0,16.0,101.0,102.0,29.0,151.0
16.0,-66.0,-13.0,-25.0,81.0,57.0,48.0,176.0
422.0,-49.0,-25.0,-18.0,53.0,-6.0,19.0,148.0
738.0,-19.0,-9.0,-38.0,37.0,-54.0,14.0,152.0
458.0,5.0,3.0,-61.0,41.0,-72.0,2.0,117.0
82.0,37.0,-15.0,-44.0,58.0,-7.0,21.0,127.0
-45.0,0.0,-19.0,-15.0,62.0,2.0,34.0,124.0
104.0,-28.0,-7.0,-19.0,12.0,18.0,-6.0,124.0
328.0,11.0,-11.0,-34.0,-26.0,44.0,19.0,106.0
67.0,31.0,-12.0,-10.0,-42.0,57.0,17.0,100.0
-183.0,11.0,-13.0,-16.0,-49.0,10.0,3.0,108.0
-449.0,-23.0,-34.0,-24.0,-58.0,-8.0,-4.0,121.0
-382.0,-53.0,-20.0,-41.0,-44.0,-5.0,10.0,157.0
187.0,-50.0,13.0,-48.0,-59.0,-25.0,28.0,153.0
495.0,13.0,18.0,-22.0,-74.0,-11.0,48.0,184.0
855.0,3.0,17.0,-11.0,-96.0,-22.0,78.0,341.0
784.0,8.0,18.0,-26.0,-118.0,-43.0,54.0,569.0
-33.0,16.0,20.0,-34.0,-70.0,-61.0,42.0,590.0
-453.0,64.0,15.0,-4.0,-94.0,-29.0,49.0,490.0
72.0,73.0,39.0,18.0,-89.0,-12.0,70.0,426.0
553.0,1.0,11.0,-3.0,-117.0,-39.0,39.0,196.0
511.0,6.0,24.0,2.0,-138.0,-41.0,23.0,10.0
222.0,-3.0,51.0,-3.0,-126.0,-92.0,56.0,-181.0
-67.0,-26.0,-2.0,9.0,-128.0,-102.0,54.0,-536.0
-17.0,-12.0,-4.0,3.0,-126.0,-63.0,9.0,-824.0
-49.0,21.0,4.0,-22.0,-136.0,-23.0,19.0,-555.0
-138.0,46.0,12.0,-7.0,-79.0,-39.0,49.0,-5.0
-300.0,40.0,10.0,-29.0,-67.0,-66.0,31.0,116.0
-331.0,-11.0,-7.0,-34.0,-90.0,-31.0,47.0,290.0
-72.0,9.0,-4.0,-28.0,-117.0,8.0,45.0,384.0
-167.0,45.0,-9.0,-37.0,-109.0,28.0,48.0,304.0
-374.0,85.0,10.0,-13.0,-78.0,2.0,27.0,322.0
-354.0,87.0,10.0,-7.0,-58.0,-51.0,12.0,95.0
-186.0,45.0,9.0,-22.0,-38.0,-66.0,49.0,74.0
-183.0,47.0,12.0,-18.0,-16.0,-52.0,27.0,148.0
-25.0,44.0,8.0,-11.0,-9.0,-75.0,38.0,60.0
139.0,28.0,-8.0,-10.0,-24.0,-53.0,30.0,98.0
99.0,9.0,-23.0,-11.0,-34.0,-44.0,43.0,41.0
104.0,11.0,7.0,-2.0,-41.0,-46.0,64.0,33.0
-3.0,-31.0,-6.0,1.0,-27.0,-39.0,43.0,47.0
11.0,-21.0,-5.0,-8.0,-18.0,-11.0,60.0,-8.0
167.0,-9.0,12.0,0.0,-21.0,2.0,76.0,-21.0
240.0,-21.0,2.0,-1.0,-13.0,-23.0,91.0,-42.0
119.0,-9.0,4.0,12.0,-2.0,-31.0,84.0,-42.0
107.0,36.0,-8.0,16.0,-18.0,-33.0,79.0,-68.0
265.0,67.0,-11.0,19.0,-15.0,29.0,76.0,-68.0
342.0,81.0,18.0,1.0,-7.0,64.0,64.0,-67.0
342.0,75.0,18.0,10.0,-23.0,30.0,53.0,-98.0
249.0,10.0,-2.0,4.0,-65.0,-7.0,58.0,-116.0
147.0,-32.0,20.0,-36.0,-42.0,-51.0,53.0,-112.0
21.0,-118.0,-2.0,-16.0,-5.0,-108.0,33.0,-157.0
-262.0,-145.0,-22.0,-19.0,6.0,-145.0,32.0,-182.0
-475.0,-102.0,3.0,7.0,32.0,-143.0,38.0,-170.0
-318.0,-79.0,-29.0,-1.0,-10.0,-33.0,4.0,-170.0
-75.0,-70.0,-10.0,-11.0,-56.0,-14.0,5.0,-166.0
61.0,-35.0,-10.0,-5.0,-60.0,-37.0,28.0,-194.0
149.0,-8.0,-47.0,-32.0,-70.0,-4.0,-18.0,-189.0
171.0,-7.0,-37.0,-19.0,-77.0,-16.0,-13.0,-189.0
125.0,1.0,-42.0,-32.0,-74.0,4.0,3.0,-193.0
74.0,-12.0,-30.0,-38.0,-66.0,53.0,10.0,-221.0
86.0,11.0,-24.0,-36.0,-50.0,102.0,0.0,-226.0
105.0,-26.0,-26.0,-33.0,-4.0,86.0,10.0,-196.0
72.0,-111.0,-20.0,-38.0,22.0,81.0,44.0,-210.0
-99.0,-141.0,-1.0,-15.0,1.0,94.0,42.0,-217.0
-117.0,-39.0,7.0,2.0,-9.0,110.0,50.0,-232.0
-68.0,9.0,-5.0,-11.0,20.0,38.0,37.0,-292.0
-76.0,43.0,8.0,8.0,11.0,-38.0,36.0,-334.0
-20.0,110.0,8.0,8.0,-14.0,0.0,47.0,-415.0
-5.0,64.0,3.0,20.0,-4.0,17.0,31.0,-411.0
24.0,75.0,5.0,3.0,-4.0,-97.0,12.0,-251.0
17.0,87.0,11.0,-9.0,12.0,-123.0,25.0,-232.0
96.0,99.0,-18.0,-10.0,23.0,58.0,4.0,-305.0
110.0,147.0,-56.0,-21.0,21.0,148.0,-25.0,-339.0
69.0,173.0,-44.0,-34.0,-6.0,134.0,-9.0,-456.0
141.0,124.0,-41.0,-41.0,-12.0,123.0,-20.0,-524.0
77.0,31.0,2.0,-41.0,-1.0,123.0,-7.0,-549.0
-60.0,-26.0,-18.0,-13.0,9.0,155.0,4.0,-618.0
-126.0,-56.0,-29.0,-6.0,50.0,167.0,17.0,-484.0
-242.0,-129.0,-8.0,-34.0,60.0,115.0,18.0,-149.0
-439.0,-192.0,-18.0,-30.0,61.0,95.0,24.0,-142.0
-474.0,-188.0,16.0,-20.0,41.0,138.0,8.0,-273.0
-313.0,-188.0,-32.0,-9.0,55.0,122.0,6.0,-211.0
-222.0,-176.0,-14.0,-3.0,65.0,126.0,13.0,-305.0
-183.0,-85.0,10.0,6.0,82.0,138.0,-9.0,-366.0
-54.0,34.0,-23.0,7.0,98.0,155.0,12.0,-449.0
3.0,32.0,-4.0,16.0,118.0,193.0,13.0,-627.0
36.0,21.0,-16.0,19.0,132.0,205.0,40.0,-665.0
36.0,16.0,-12.0,26.0,104.0,180.0,30.0,-319.0
-45.0,-12.0,-15.0,8.0,113.0,155.0,18.0,-301.0
-1.0,14.0,-13.0,-18.0,112.0,138.0,9.0,-348.0
50.0,42.0,-3.0,-9.0,114.0,78.0,9.0,-151.0
64.0,40.0,-13.0,-5.0,119.0,71.0,4.0,-223.0
38.0,41.0,-10.0,-8.0,108.0,1.0,-11.0,-101.0
-23.0,83.0,7.0,-21.0,88.0,-16.0,15.0,-46.0
-39.0,58.0,24.0,-23.0,119.0,28.0,28.0,50.0
27.0,33.0,28.0,0.0,125.0,16.0,39.0,5.0
51.0,53.0,13.0,6.0,119.0,54.0,7.0,-73.0
21.0,83.0,5.0,-23.0,141.0,42.0,6.0,-14.0
74.0,66.0,-15.0,-16.0,110.0,58.0,23.0,-52.0
92.0,42.0,-3.0,-30.0,102.0,73.0,10.0,-20.0
83.0,89.0,1.0,-18.0,104.0,78.0,2.0,-136.0
90.0,53.0,11.0,-21.0,100.0,68.0,-3.0,-146.0
35.0,37.0,16.0,-38.0,89.0,56.0,8.0,-140.0
27.0,33.0,-8.0,-24.0,55.0,113.0,1.0,-149.0
14.0,-16.0,11.0,-62.0,28.0,78.0,-1.0,-186.0
-27.0,14.0,-15.0,-49.0,31.0,73.0,-8.0,-284.0
-23.0,-11.0,-16.0,-13.0,-9.0,85.0,-19.0,-474.0
-28.0,-32.0,0.0,10.0,-16.0,61.0,10.0,-313.0
-23.0,-10.0,-3.0,15.0,-13.0,53.0,34.0,80.0
-36.0,2.0,-12.0,0.0,-58.0,63.0,33.0,122.0
-11.0,26.0,10.0,4.0,-90.0,102.0,21.0,170.0
18.0,37.0,31.0,-1.0,-136.0,63.0,8.0,168.0
4.0,73.0,15.0,12.0,-75.0,22.0,24.0,171.0
-4.0,40.0,23.0,6.0,-39.0,-112.0,32.0,213.0
-34.0,4.0,4.0,-16.0,-89.0,-188.0,14.0,204.0
-25.0,21.0,-16.0,-4.0,-59.0,-48.0,3.0,224.0
15.0,-5.0,-20.0,-10.0,-29.0,-34.0,5.0,236.0
10.0,-36.0,-22.0,-30.0,-2.0,-94.0,8.0,255.0
5.0,-27.0,-17.0,-6.0,27.0,-79.0,-22.0,247.0
-14.0,12.0,-12.0,-37.0,3.0,-72.0,-24.0,290.0
-13.0,-10.0,-22.0,-91.0,11.0,-49.0,-6.0,358.0
-5.0,-44.0,-32.0,-71.0,1.0,-76.0,6.0,509.0
10.0,-37.0,-44.0,-92.0,1.0,-54.0,-15.0,461.0
32.0,-53.0,-51.0,-102.0,65.0,-3.0,-10.0,367.0
8.0,-47.0,-22.0,-81.0,96.0,80.0,10.0,377.0
-26.0,-15.0,7.0,-75.0,114.0,54.0,-6.0,236.0
-54.0,68.0,0.0,-46.0,118.0,-46.0,32.0,145.0
-16.0,91.0,6.0,-8.0,102.0,-35.0,28.0,28.0
7.0,63.0,33.0,2.0,130.0,-54.0,34.0,-78.0
28.0,0.0,19.0,-10.0,145.0,-44.0,49.0,50.0
64.0,-135.0,26.0,-6.0,143.0,-37.0,23.0,369.0
9.0,-121.0,-8.0,7.0,125.0,-43.0,33.0,426.0
15.0,-64.0,-14.0,16.0,134.0,-19.0,42.0,344.0
18.0,-39.0,-5.0,19.0,125.0,-68.0,53.0,355.0
-28.0,-3.0,-15.0,5.0,133.0,-57.0,28.0,274.0
-24.0,9.0,-4.0,16.0,159.0,-88.0,13.0,225.0
-12.0,18.0,-39.0,25.0,166.0,-107.0,37.0,252.0
12.0,3.0,-42.0,-6.0,207.0,-58.0,21.0,471.0
-6.0,8.0,-18.0,-6.0,178.0,-86.0,18.0,474.0
-6.0,-38.0,-22.0,-4.0,147.0,-42.0,35.0,434.0
-1.0,-24.0,-1.0,-13.0,119.0,35.0,13.0,499.0
-18.0,0.0,12.0,-7.0,100.0,48.0,26.0,487.0
-18.0,-21.0,11.0,-14.0,102.0,13.0,53.0,543.0
-17.0,-20.0,15.0,4.0,77.0,-54.0,44.0,473.0
9.0,-59.0,15.0,-30.0,65.0,-44.0,46.0,432.0
-9.0,-19.0,6.0,-37.0,16.0,-13.0,45.0,409.0
-37.0,52.0,4.0,-19.0,1.0,16.0,46.0,394.0
-32.0,50.0,9.0,-20.0,-17.0,51.0,29.0,397.0
-56.0,49.0,-4.0,-10.0,-29.0,-5.0,42.0,409.0
-54.0,60.0,0.0,-42.0,-34.0,9.0,49.0,442.0
-63.0,73.0,-1.0,-40.0,-118.0,8.0,16.0,394.0
-63.0,34.0,14.0,-28.0,-160.0,-3.0,2.0,409.0
-67.0,37.0,12.0,-13.0,-168.0,35.0,0.0,474.0
-72.0,34.0,-5.0,0.0,-160.0,32.0,15.0,409.0
-12.0,-55.0,-6.0,-15.0,-162.0,23.0,19.0,290.0
-4.0,-30.0,-8.0,-28.0,-177.0,13.0,42.0,296.0
-21.0,-38.0,-4.0,-29.0,-130.0,39.0,28.0,267.0
-13.0,-107.0,-5.0,-24.0,-103.0,-10.0,25.0,196.0
-45.0,-22.0,-18.0,1.0,-89.0,-69.0,39.0,213.0
-74.0,78.0,10.0,7.0,-83.0,25.0,42.0,201.0
-53.0,102.0,26.0,-17.0,-92.0,200.0,25.0,149.0
-36.0,33.0,-15.0,-21.0,-105.0,177.0,14.0,100.0
-39.0,-31.0,-1.0,-3.0,-89.0,61.0,41.0,67.0
-31.0,-57.0,-18.0,7.0,-49.0,61.0,38.0,19.0
-40.0,-49.0,-23.0,-19.0,3.0,40.0,27.0,-1.0
-47.0,-6.0,-9.0,-23.0,-6.0,-66.0,36.0,10.0
-15.0,13.0,-13.0,-21.0,-52.0,-219.0,48.0,10.0
-24.0,21.0,-2.0,-4.0,-38.0,-287.0,69.0,11.0
-27.0,-16.0,-17.0,24.0,-67.0,-143.0,53.0,8.0
-37.0,-54.0,-10.0,7.0,-88.0,-66.0,29.0,8.0
-35.0,-56.0,-6.0,-4.0,-66.0,-50.0,19.0,29.0
-9.0,-44.0,-24.0,-25.0,-30.0,78.0,21.0,46.0
-54.0,12.0,-2.0,-32.0,-9.0,86.0,34.0,35.0
-90.0,47.0,-25.0,-42.0,46.0,79.0,13.0,8.0
-83.0,58.0,-17.0,-32.0,64.0,86.0,33.0,3.0
-58.0,43.0,-12.0,-31.0,62.0,38.0,40.0,-13.0
11.0,32.0,-21.0,-50.0,85.0,31.0,27.0,-114.0
28.0,-18.0,15.0,-10.0,72.0,5.0,19.0,-228.0
21.0,-60.0,30.0,-31.0,128.0,28.0,19.0,-195.0
12.0,4.0,0.0,-30.0,139.0,71.0,27.0,-76.0
21.0,37.0,-11.0,0.0,135.0,23.0,16.0,-102.0
47.0,69.0,10.0,7.0,154.0,-39.0,29.0,-159.0
7.0,86.0,15.0,18.0,130.0,-102.0,30.0,-226.0
-4.0,30.0,4.0,12.0,132.0,-90.0,20.0,-248.0
-5.0,-6.0,-10.0,26.0,143.0,35.0,19.0,-236.0
-29.0,-26.0,-13.0,-5.0,106.0,73.0,44.0,-163.0
-66.0,-15.0,-28.0,-13.0,162.0,132.0,52.0,15.0
-135.0,-37.0,-4.0,-17.0,175.0,135.0,54.0,80.0
-188.0,-22.0,-17.0,-42.0,148.0,79.0,38.0,65.0
-148.0,38.0,-22.0,-32.0,138.0,98.0,31.0,-109.0
-51.0,-12.0,9.0,-3.0,78.0,-11.0,45.0,-313.0
4.0,-62.0,12.0,19.0,89.0,-22.0,35.0,-311.0
39.0,-50.0,30.0,-10.0,65.0,19.0,59.0,-386.0
24.0,-30.0,10.0,-18.0,39.0,61.0,42.0,-656.0
23.0,19.0,8.0,-26.0,46.0,67.0,38.0,-614.0
31.0,21.0,12.0,-19.0,44.0,-10.0,54.0,-232.0
58.0,12.0,-5.0,3.0,40.0,-58.0,42.0,-156.0
47.0,24.0,-13.0,-36.0,-10.0,-13.0,40.0,-166.0
-11.0,30.0,-8.0,-43.0,-13.0,102.0,42.0,-107.0
8.0,53.0,-14.0,-30.0,12.0,70.0,38.0,-159.0
-9.0,99.0,-21.0,-41.0,17.0,54.0,24.0,-118.0
-32.0,89.0,-42.0,-37.0,6.0,19.0,37.0,-32.0
-32.0,87.0,-24.0,-36.0,39.0,18.0,50.0,86.0
-13.0,68.0,-20.0,-33.0,49.0,44.0,48.0,31.0
47.0,-36.0,-34.0,-42.0,15.0,18.0,43.0,-69.0
73.0,-78.0,-20.0,-16.0,28.0,43.0,49.0,-145.0
61.0,-76.0,-2.0,-15.0,34.0,34.0,45.0,-246.0
17.0,-29.0,-4.0,-15.0,45.0,29.0,36.0,-280.0
-26.0,16.0,-19.0,-1.0,19.0,36.0,37.0,-472.0
-5.0,30.0,-8.0,-29.0,-3.0,47.0,23.0,-529.0
-31.0,37.0,-17.0,-19.0,-3.0,66.0,21.0,-248.0
-74.0,-12.0,-43.0,-10.0,9.0,75.0,13.0,-114.0
-79.0,-45.0,-25.0,-30.0,12.0,106.0,25.0,-46.0
-64.0,-19.0,0.0,-7.0,7.0,101.0,48.0,112.0
-1.0,0.0,17.0,0.0,37.0,83.0,43.0,-34.0
16.0,-22.0,17.0,-13.0,45.0,64.0,29.0,-116.0
-8.0,-38.0,-21.0,-11.0,35.0,28.0,24.0,-189.0
-23.0,-43.0,-16.0,-6.0,62.0,9.0,-6.0,-334.0
-13.0,-48.0,-5.0,9.0,61.0,28.0,2.0,-447.0
6.0,-34.0,-4.0,6.0,23.0,40.0,24.0,-683.0
15.0,-15.0,-11.0,-8.0,24.0,-11.0,0.0,-839.0
27.0,-17.0,-19.0,4.0,19.0,-52.0,21.0,-584.0
1.0,-36.0,1.0,-9.0,1.0,-27.0,32.0,-301.0
-20.0,9.0,-1.0,7.0,-3.0,29.0,47.0,-427.0
-20.0,58.0,0.0,-6.0,-10.0,90.0,38.0,-378.0
3.0,52.0,-16.0,-25.0,-28.0,99.0,48.0,-394.0
16.0,79.0,-18.0,-5.0,-34.0,148.0,55.0,-427.0
-2.0,57.0,-12.0,2.0,-29.0,203.0,40.0,-406.0
32.0,55.0,4.0,-4.0,-37.0,141.0,24.0,-453.0
70.0,41.0,20.0,-1.0,-23.0,71.0,25.0,-419.0
89.0,-7.0,2.0,-4.0,-12.0,62.0,-5.0,-449.0
70.0,-1.0,-1.0,-24.0,-15.0,57.0,13.0,-427.0
1.0,9.0,10.0,-12.0,-34.0,58.0,64.0,-385.0
-47.0,-15.0,12.0,-19.0,-45.0,69.0,21.0,-248.0
-35.0,-24.0,12.0,-1.0,-50.0,47.0,1.0,-147.0
-42.0,-24.0,-5.0,22.0,-63.0,45.0,22.0,-139.0
-21.0,2.0,9.0,12.0,-63.0,42.0,25.0,-146.0
42.0,54.0,29.0,9.0,-86.0,36.0,20.0,-187.0
23.0,41.0,-2.0,4.0,-93.0,44.0,45.0,-232.0
13.0,48.0,-1.0,11.0,-84.0,44.0,24.0,-226.0
6.0,37.0,-4.0,-7.0,-99.0,56.0,33.0,-262.0
6.0,30.0,-6.0,16.0,-86.0,45.0,37.0,-313.0
62.0,64.0,1.0,-11.0,-83.0,33.0,17.0,-143.0
92.0,72.0,4.0,-17.0,-130.0,39.0,46.0,19.0
111.0,59.0,-26.0,-21.0,-103.0,17.0,-1.0,10.0
86.0,36.0,-15.0,-31.0,-120.0,119.0,4.0,60.0
21.0,33.0,-2.0,1.0,-103.0,134.0,21.0,84.0
-14.0,-1.0,3.0,-30.0,-62.0,83.0,-16.0,73.0
-16.0,-20.0,7.0,-26.0,-95.0,62.0,2.0,144.0
18.0,-22.0,-18.0,-23.0,-49.0,32.0,-24.0,165.0
-77.0,-32.0,-5.0,-19.0,-53.0,-4.0,-14.0,206.0
-145.0,-32.0,-2.0,-19.0,-95.0,-155.0,-3.0,214.0
4.0,-41.0,8.0,-8.0,-91.0,-24.0,-13.0,261.0
86.0,-23.0,4.0,-6.0,-102.0,1.0,-1.0,319.0
89.0,19.0,8.0,-20.0,-99.0,-56.0,-15.0,414.0
86.0,38.0,1.0,0.0,-53.0,35.0,7.0,409.0
89.0,60.0,17.0,-17.0,-8.0,-2.0,1.0,279.0
55.0,40.0,21.0,-17.0,9.0,-3.0,16.0,312.0
107.0,11.0,-15.0,-15.0,39.0,-65.0,5.0,222.0
133.0,-14.0,-10.0,-47.0,53.0,-101.0,-29.0,122.0
42.0,-2.0,0.0,-51.0,61.0,-97.0,-24.0,64.0
21.0,-3.0,-1.0,-52.0,50.0,-109.0,-22.0,-156.0
-88.0,-37.0,-5.0,-47.0,49.0,-43.0,10.0,-297.0
-121.0,-42.0,-11.0,-38.0,52.0,18.0,3.0,-37.0
-20.0,-38.0,-28.0,-38.0,32.0,24.0,-11.0,196.0
199.0,3.0,-14.0,-36.0,23.0,64.0,13.0,80.0
316.0,49.0,-10.0,-40.0,20.0,86.0,-14.0,153.0
-13.0,50.0,1.0,-34.0,60.0,77.0,-5.0,107.0
-215.0,23.0,-14.0,-40.0,84.0,90.0,4.0,83.0
-117.0,10.0,-9.0,-25.0,90.0,59.0,10.0,72.0
-163.0,-14.0,-11.0,-4.0,119.0,46.0,23.0,63.0
-340.0,-10.0,-28.0,-17.0,161.0,58.0,33.0,102.0
-372.0,3.0,5.0,-32.0,159.0,48.0,26.0,30.0
-152.0,-29.0,-14.0,-51.0,130.0,38.0,-18.0,60.0
-54.0,-37.0,-20.0,-38.0,92.0,29.0,-3.0,69.0
-165.0,-34.0,0.0,-33.0,134.0,12.0,8.0,43.0
-346.0,-28.0,-5.0,-76.0,183.0,-12.0,-19.0,29.0
-457.0,12.0,-32.0,-45.0,175.0,7.0,-39.0,27.0
-360.0,36.0,-32.0,-16.0,157.0,51.0,-33.0,-9.0
-352.0,-8.0,-30.0,-52.0,123.0,36.0,-4.0,3.0
-307.0,-9.0,-40.0,-46.0,113.0,23.0,10.0,41.0
-160.0,9.0,-54.0,-37.0,101.0,33.0,-17.0,87.0
60.0,11.0,-53.0,-24.0,128.0,15.0,6.0,94.0
142.0,-7.0,-18.0,-9.0,131.0,-22.0,13.0,136.0
74.0,-13.0,-11.0,-19.0,150.0,-53.0,16.0,178.0
74.0,30.0,14.0,21.0,183.0,80.0,22.0,190.0
77.0,23.0,40.0,18.0,188.0,140.0,19.0,159.0
342.0,29.0,27.0,34.0,220.0,71.0,35.0,119.0
627.0,10.0,61.0,28.0,200.0,147.0,28.0,206.0
602.0,-31.0,42.0,14.0,180.0,188.0,33.0,83.0
398.0,-60.0,6.0,31.0,162.0,141.0,22.0,117.0
225.0,-64.0,31.0,20.0,98.0,119.0,31.0,224.0
92.0,1.0,23.0,22.0,84.0,138.0,42.0,176.0
-131.0,25.0,11.0,10.0,104.0,178.0,40.0,249.0
-356.0,17.0,28.0,12.0,71.0,115.0,50.0,193.0
-258.0,8.0,9.0,12.0,58.0,106.0,54.0,236.0
-175.0,-12.0,-9.0,9.0,87.0,213.0,68.0,239.0
-159.0,-6.0,20.0,-5.0,81.0,113.0,44.0,264.0
-232.0,-28.0,7.0,9.0,78.0,22.0,20.0,361.0
-396.0,-67.0,-11.0,9.0,123.0,91.0,47.0,341.0
-292.0,-31.0,-3.0,-12.0,130.0,77.0,32.0,312.0
-201.0,42.0,-11.0,-1.0,69.0,-9.0,33.0,331.0
-219.0,64.0,-2.0,7.0,84.0,-117.0,30.0,340.0
-136.0,43.0,-5.0,-6.0,82.0,-28.0,17.0,235.0
38.0,37.0,2.0,-17.0,11.0,72.0,20.0,218.0
159.0,41.0,-18.0,-4.0,14.0,36.0,16.0,203.0
116.0,17.0,-22.0,-19.0,0.0,62.0,42.0,210.0
-14.0,-28.0,-16.0,-26.0,-21.0,47.0,0.0,193.0
-47.0,-63.0,-26.0,-38.0,-6.0,23.0,-6.0,145.0
-23.0,-64.0,-36.0,-31.0,25.0,14.0,33.0,157.0
89.0,-28.0,-37.0,-42.0,49.0,15.0,19.0,141.0
157.0,-14.0,-31.0,-46.0,81.0,43.0,-8.0,142.0
150.0,-39.0,-53.0,-40.0,74.0,14.0,-12.0,135.0
269.0,18.0,-38.0,-54.0,63.0,28.0,-18.0,105.0
267.0,55.0,-13.0,-32.0,47.0,47.0,2.0,100.0
190.0,11.0,-7.0,-30.0,45.0,25.0,33.0,147.0
162.0,-2.0,-10.0,-22.0,50.0,20.0,29.0,160.0
82.0,-32.0,-1.0,-24.0,-5.0,-27.0,42.0,200.0
61.0,-20.0,5.0,-11.0,-15.0,-24.0,40.0,213.0
50.0,7.0,0.0,-7.0,2.0,-17.0,68.0,218.0
-74.0,-44.0,14.0,7.0,-7.0,-37.0,72.0,243.0
-27.0,-4.0,-12.0,4.0,11.0,-23.0,67.0,267.0
47.0,18.0,-21.0,-15.0,23.0,-17.0,65.0,308.0
20.0,-23.0,-1.0,7.0,0.0,-14.0,58.0,341.0
187.0,25.0,17.0,-6.0,0.0,-21.0,49.0,357.0
287.0,59.0,6.0,-3.0,12.0,-69.0,41.0,355.0
314.0,60.0,4.0,-28.0,20.0,-97.0,68.0,373.0
408.0,66.0,13.0,-16.0,37.0,-94.0,62.0,341.0
608.0,21.0,-1.0,12.0,32.0,-101.0,37.0,332.0
538.0,7.0,6.0,6.0,29.0,-102.0,56.0,367.0
166.0,-4.0,12.0,10.0,53.0,-110.0,73.0,368.0
61.0,20.0,-12.0,18.0,45.0,-92.0,76.0,404.0
-195.0,44.0,0.0,-9.0,22.0,-104.0,72.0,409.0
-261.0,38.0,-6.0,-3.0,44.0,-123.0,48.0,397.0
-101.0,17.0,-23.0,7.0,36.0,-134.0,37.0,384.0
-81.0,-30.0,-22.0,-1.0,47.0,-149.0,56.0,373.0
-77.0,-24.0,-42.0,4.0,53.0,-137.0,50.0,409.0
-242.0,-24.0,-22.0,4.0,26.0,-152.0,59.0,425.0
-351.0,9.0,-32.0,-2.0,53.0,-179.0,33.0,387.0
-272.0,33.0,-46.0,-6.0,40.0,-195.0,5.0,379.0
13.0,31.0,-42.0,26.0,26.0,-161.0,23.0,387.0
207.0,4.0,-37.0,11.0,27.0,-147.0,37.0,387.0
563.0,-10.0,-20.0,0.0,6.0,-124.0,48.0,373.0
528.0,5.0,-38.0,-25.0,13.0,-52.0,8.0,368.0
-176.0,-4.0,-22.0,-41.0,5.0,-3.0,16.0,369.0
-567.0,31.0,-17.0,-26.0,9.0,-33.0,22.0,352.0
-966.0,38.0,-18.0,-26.0,5.0,-75.0,34.0,365.0
-1149.0,21.0,-20.0,-15.0,-31.0,-42.0,58.0,369.0
-915.0,2.0,-20.0,-17.0,-17.0,-51.0,0.0,326.0
-744.0,-4.0,-4.0,-18.0,-3.0,-24.0,10.0,291.0
-272.0,-5.0,-16.0,-32.0,-3.0,-19.0,20.0,296.0
69.0,-21.0,10.0,-31.0,19.0,-38.0,44.0,269.0
97.0,-48.0,21.0,-7.0,3.0,-15.0,51.0,252.0
62.0,-27.0,26.0,-14.0,-16.0,-15.0,41.0,243.0
-258.0,-8.0,19.0,-5.0,2.0,31.0,48.0,239.0
-227.0,8.0,40.0,-16.0,9.0,58.0,25.0,226.0
564.0,1.0,46.0,-16.0,-2.0,47.0,32.0,199.0
1181.0,-38.0,52.0,-6.0,1.0,17.0,23.0,196.0
1384.0,-31.0,52.0,-36.0,-3.0,-14.0,29.0,149.0
1026.0,-12.0,45.0,-43.0,-24.0,-49.0,6.0,157.0
473.0,-21.0,80.0,-54.0,-13.0,-104.0,13.0,155.0
151.0,-28.0,67.0,-52.0,-7.0,-64.0,27.0,122.0
-141.0,-3.0,103.0,-85.0,-35.0,10.0,30.0,104.0
-238.0,36.0,119.0,-104.0,-33.0,-54.0,32.0,103.0
-360.0,27.0,122.0,-86.0,-12.0,-35.0,23.0,148.0
-294.0,43.0,128.0,-121.0,4.0,93.0,58.0,182.0
-354.0,71.0,112.0,-116.0,3.0,80.0,48.0,155.0
-691.0,22.0,89.0,-108.0,8.0,96.0,37.0,42.0
-1064.0,7.0,67.0,-109.0,3.0,97.0,28.0,-40.0
-909.0,51.0,65.0,-99.0,-11.0,80.0,36.0,-169.0
-481.0,36.0,40.0,-78.0,-1.0,61.0,14.0,-235.0
25.0,69.0,24.0,-65.0,-9.0,43.0,2.0,-295.0
465.0,148.0,2.0,-74.0,-48.0,59.0,10.0,-390.0
608.0,68.0,-24.0,-72.0,-58.0,54.0,-10.0,-313.0
608.0,-28.0,-43.0,-54.0,-44.0,70.0,9.0,-189.0
127.0,-45.0,-55.0,-39.0,-40.0,53.0,30.0,-221.0
-71.0,-66.0,-101.0,-29.0,-12.0,67.0,-15.0,-257.0
-193.0,-28.0,-107.0,9.0,-15.0,84.0,-20.0,-269.0
-361.0,-5.0,-84.0,22.0,2.0,104.0,0.0,-348.0
-306.0,10.0,-122.0,22.0,36.0,112.0,-11.0,-357.0
-218.0,52.0,-122.0,32.0,67.0,105.0,-6.0,-397.0
40.0,17.0,-129.0,51.0,78.0,136.0,25.0,-366.0
235.0,-10.0,-123.0,77.0,49.0,115.0,54.0,-366.0
186.0,-2.0,-110.0,105.0,30.0,115.0,33.0,-358.0
-77.0,15.0,-88.0,105.0,-13.0,119.0,37.0,-251.0
-327.0,52.0,-90.0,100.0,1.0,122.0,66.0,-153.0
-286.0,19.0,-101.0,107.0,25.0,116.0,50.0,-219.0
-183.0,6.0,-85.0,110.0,-5.0,111.0,32.0,-325.0
-177.0,-43.0,-87.0,93.0,7.0,113.0,17.0,-411.0
77.0,-30.0,-80.0,77.0,-7.0,81.0,9.0,-557.0
174.0,-20.0,-57.0,85.0,-25.0,79.0,33.0,-553.0
268.0,-22.0,-44.0,64.0,-4.0,76.0,28.0,-638.0
346.0,27.0,-44.0,51.0,-4.0,76.0,12.0,-931.0
386.0,5.0,-37.0,38.0,-7.0,63.0,-4.0,-875.0
328.0,17.0,-47.0,32.0,-4.0,81.0,-9.0,-474.0
198.0,36.0,-40.0,40.0,-41.0,97.0,15.0,-525.0
308.0,18.0,-22.0,5.0,-38.0,82.0,13.0,-492.0
293.0,14.0,-33.0,-35.0,2.0,95.0,4.0,-407.0
214.0,33.0,-43.0,-48.0,0.0,83.0,4.0,-484.0
104.0,17.0,-42.0,-71.0,15.0,103.0,22.0,-370.0
9.0,-7.0,-30.0,-82.0,-9.0,105.0,17.0,-443.0
-76.0,-20.0,-17.0,-59.0,-22.0,99.0,-18.0,-385.0
-154.0,-39.0,-5.0,-45.0,-7.0,70.0,15.0,-385.0
-82.0,-46.0,14.0,-11.0,-20.0,33.0,1.0,-380.0
-52.0,-31.0,17.0,7.0,-27.0,72.0,-8.0,-338.0
-20.0,-14.0,27.0,-25.0,-27.0,64.0,6.0,-338.0
-31.0,-58.0,15.0,-19.0,-34.0,73.0,2.0,-278.0
-60.0,-75.0,30.0,-21.0,-69.0,94.0,22.0,-275.0
-1.0,-15.0,26.0,-25.0,-62.0,86.0,8.0,-251.0
71.0,25.0,4.0,-28.0,-3.0,99.0,20.0,-227.0
147.0,2.0,1.0,-49.0,-17.0,81.0,15.0,-215.0
105.0,-14.0,-11.0,-71.0,-25.0,69.0,21.0,-214.0
78.0,-25.0,27.0,-71.0,-16.0,56.0,16.0,-199.0
77.0,51.0,33.0,-44.0,-66.0,54.0,-11.0,-207.0
63.0,93.0,10.0,-54.0,-53.0,57.0,41.0,-189.0
127.0,99.0,23.0,-36.0,-27.0,76.0,30.0,-169.0
113.0,134.0,18.0,2.0,-37.0,61.0,18.0,-159.0
82.0,75.0,20.0,-21.0,-30.0,26.0,-3.0,-138.0
104.0,28.0,12.0,-41.0,-3.0,47.0,-14.0,-118.0
56.0,-11.0,23.0,-34.0,-1.0,79.0,20.0,-71.0
-93.0,-80.0,7.0,-46.0,-20.0,75.0,31.0,-42.0
-323.0,-217.0,5.0,-14.0,-21.0,40.0,19.0,8.0
-421.0,-231.0,24.0,-2.0,-42.0,38.0,-2.0,6.0
-416.0,-163.0,13.0,-10.0,-30.0,23.0,2.0,-14.0
-354.0,-163.0,13.0,-18.0,-49.0,22.0,-8.0,-38.0
-138.0,-52.0,17.0,-26.0,-49.0,41.0,14.0,-86.0
16.0,19.0,23.0,-28.0,-14.0,44.0,24.0,-158.0
92.0,22.0,15.0,-34.0,-22.0,61.0,28.0,-121.0
143.0,27.0,19.0,-36.0,-2.0,78.0,33.0,3.0
77.0,22.0,17.0,-78.0,0.0,57.0,37.0,-33.0
104.0,25.0,-20.0,-75.0,-21.0,50.0,33.0,12.0
80.0,5.0,-2.0,-66.0,-37.0,82.0,14.0,30.0
7.0,40.0,10.0,-59.0,-43.0,49.0,18.0,0.0
13.0,73.0,26.0,-63.0,-27.0,18.0,21.0,43.0
-30.0,83.0,24.0,-47.0,-44.0,16.0,23.0,33.0
7.0,114.0,24.0,-16.0,-36.0,48.0,19.0,32.0
35.0,99.0,15.0,2.0,-34.0,42.0,13.0,32.0
39.0,90.0,-5.0,-9.0,-34.0,49.0,19.0,62.0
45.0,82.0,1.0,-3.0,-17.0,3.0,3.0,46.0
26.0,43.0,3.0,4.0,-20.0,-16.0,9.0,60.0
6.0,71.0,5.0,0.0,30.0,47.0,17.0,67.0
13.0,63.0,13.0,37.0,53.0,29.0,15.0,86.0
-13.0,-25.0,8.0,10.0,36.0,7.0,25.0,104.0
-131.0,-63.0,-2.0,33.0,25.0,-43.0,59.0,84.0
-201.0,-27.0,36.0,34.0,37.0,-33.0,42.0,108.0
-195.0,-8.0,14.0,-7.0,64.0,32.0,28.0,112.0
-96.0,-28.0,-9.0,12.0,79.0,70.0,45.0,124.0
-24.0,47.0,18.0,12.0,101.0,81.0,48.0,143.0
1.0,71.0,36.0,22.0,113.0,73.0,45.0,139.0
25.0,74.0,51.0,31.0,83.0,48.0,49.0,148.0
9.0,83.0,52.0,33.0,60.0,34.0,43.0,149.0
-23.0,20.0,26.0,34.0,49.0,48.0,13.0,147.0
-23.0,10.0,9.0,21.0,65.0,13.0,31.0,148.0
-20.0,-24.0,-5.0,-11.0,74.0,21.0,25.0,161.0
5.0,-23.0,-9.0,-25.0,63.0,28.0,26.0,174.0
51.0,-10.0,11.0,-34.0,75.0,34.0,4.0,204.0
8.0,-31.0,-25.0,-49.0,46.0,48.0,-20.0,341.0
-6.0,2.0,-20.0,-56.0,72.0,37.0,8.0,513.0
-39.0,6.0,-24.0,-44.0,91.0,45.0,22.0,535.0
-7.0,-4.0,-33.0,-16.0,83.0,36.0,6.0,434.0
17.0,-19.0,-17.0,-40.0,111.0,17.0,-2.0,296.0
-14.0,-10.0,-16.0,-41.0,109.0,24.0,20.0,108.0
-7.0,-16.0,-4.0,-17.0,114.0,33.0,27.0,-17.0
-18.0,-24.0,-23.0,5.0,132.0,25.0,12.0,-161.0
-30.0,-34.0,-30.0,-1.0,151.0,5.0,-2.0,-268.0
-74.0,-36.0,-24.0,5.0,123.0,14.0,-6.0,-121.0
-49.0,8.0,-15.0,-10.0,109.0,37.0,26.0,106.0
-39.0,-17.0,-42.0,-32.0,85.0,16.0,16.0,300.0
-24.0,13.0,-39.0,-29.0,82.0,5.0,27.0,293.0
1.0,21.0,-25.0,-48.0,100.0,-8.0,28.0,308.0
-18.0,7.0,-30.0,-38.0,99.0,-5.0,4.0,346.0
-5.0,5.0,-14.0,-50.0,89.0,5.0,31.0,308.0
8.0,-7.0,-17.0,-34.0,78.0,5.0,18.0,361.0
24.0,-6.0,-14.0,-36.0,89.0,22.0,16.0,328.0
4.0,-44.0,-6.0,-27.0,80.0,17.0,25.0,355.0
17.0,-72.0,-10.0,-3.0,75.0,10.0,31.0,365.0
-23.0,-30.0,-3.0,-15.0,99.0,15.0,16.0,332.0
-53.0,-28.0,-5.0,9.0,101.0,1.0,8.0,349.0
-23.0,-11.0,-9.0,-22.0,28.0,-16.0,28.0,318.0
-28.0,24.0,18.0,-34.0,-7.0,15.0,44.0,296.0
0.0,1.0,7.0,16.0,47.0,38.0,38.0,296.0
-24.0,25.0,-17.0,19.0,53.0,20.0,14.0,290.0
-44.0,57.0,-18.0,-14.0,42.0,20.0,29.0,229.0
-29.0,82.0,-10.0,-23.0,16.0,49.0,14.0,203.0
-8.0,25.0,-25.0,-28.0,9.0,13.0,-22.0,163.0
-28.0,-15.0,-18.0,-40.0,21.0,-2.0,12.0,116.0
-49.0,-36.0,-4.0,-15.0,37.0,2.0,3.0,125.0
-11.0,-100.0,-29.0,-11.0,46.0,-26.0,25.0,87.0
3.0,-95.0,-10.0,-18.0,32.0,-45.0,10.0,22.0
-13.0,-72.0,-9.0,-19.0,66.0,-115.0,-1.0,63.0
-33.0,-76.0,-21.0,-37.0,85.0,-114.0,25.0,56.0
-46.0,-54.0,-32.0,-42.0,66.0,-63.0,12.0,11.0
-56.0,-1.0,-47.0,-19.0,71.0,-66.0,33.0,11.0
-32.0,11.0,-10.0,-5.0,92.0,-23.0,53.0,-19.0
-12.0,22.0,-26.0,-9.0,66.0,-39.0,56.0,-40.0
-16.0,37.0,1.0,-22.0,36.0,-23.0,36.0,-67.0
-2.0,-12.0,18.0,-29.0,14.0,69.0,32.0,-59.0
28.0,-48.0,9.0,-40.0,37.0,126.0,41.0,-66.0
-13.0,-39.0,8.0,-54.0,78.0,95.0,53.0,-40.0
-48.0,4.0,-3.0,-33.0,106.0,-19.0,48.0,-9.0
-42.0,55.0,18.0,-19.0,125.0,-30.0,45.0,20.0
-46.0,84.0,-23.0,-24.0,96.0,-43.0,42.0,0.0
-31.0,93.0,-1.0,20.0,93.0,-130.0,36.0,-4.0
-6.0,49.0,11.0,25.0,82.0,-56.0,42.0,60.0
17.0,39.0,14.0,11.0,105.0,-7.0,48.0,-18.0
0.0,29.0,16.0,8.0,122.0,-93.0,29.0,-56.0
11.0,4.0,20.0,7.0,94.0,-97.0,30.0,-38.0
16.0,25.0,24.0,-2.0,95.0,-21.0,54.0,-25.0
4.0,-9.0,19.0,7.0,103.0,70.0,37.0,12.0
5.0,-27.0,32.0,12.0,80.0,57.0,46.0,-36.0
2.0,-15.0,-3.0,-7.0,80.0,46.0,56.0,-47.0
-12.0,28.0,5.0,3.0,109.0,68.0,45.0,-83.0
-17.0,83.0,4.0,13.0,83.0,18.0,33.0,-122.0
-11.0,60.0,-6.0,5.0,68.0,-2.0,23.0,-168.0
-41.0,25.0,-15.0,-3.0,77.0,10.0,30.0,-227.0
-21.0,-27.0,-24.0,11.0,47.0,19.0,27.0,-202.0
-5.0,-18.0,-11.0,-3.0,53.0,-56.0,36.0,-147.0
-17.0,-12.0,-5.0,-4.0,56.0,-33.0,67.0,-130.0
-55.0,-13.0,11.0,-16.0,43.0,4.0,25.0,-97.0
-56.0,37.0,-1.0,-19.0,35.0,-23.0,23.0,-76.0
-49.0,-8.0,-11.0,-7.0,3.0,29.0,42.0,-99.0
-61.0,-50.0,2.0,-16.0,0.0,5.0,24.0,-72.0
-18.0,-11.0,7.0,-23.0,-6.0,19.0,43.0,-73.0
-7.0,7.0,-8.0,-40.0,12.0,8.0,56.0,-76.0
8.0,-18.0,5.0,-30.0,66.0,-12.0,48.0,-40.0
-43.0,21.0,-9.0,-20.0,69.0,4.0,48.0,-18.0
-85.0,50.0,-7.0,-34.0,138.0,-27.0,45.0,-13.0
-55.0,52.0,19.0,-22.0,130.0,-11.0,35.0,1.0
-54.0,67.0,-20.0,-10.0,39.0,17.0,16.0,-34.0
-72.0,51.0,-18.0,0.0,25.0,71.0,39.0,10.0
-89.0,93.0,-10.0,-16.0,-26.0,20.0,47.0,-2.0
-83.0,27.0,-20.0,-36.0,-59.0,-44.0,27.0,17.0
-47.0,-39.0,-13.0,2.0,0.0,-27.0,23.0,72.0
19.0,-26.0,-7.0,-13.0,41.0,21.0,21.0,30.0
50.0,-72.0,-8.0,-32.0,58.0,38.0,8.0,62.0
56.0,-64.0,-4.0,-7.0,31.0,66.0,19.0,80.0
86.0,-56.0,0.0,-14.0,-80.0,57.0,19.0,73.0
80.0,-56.0,-6.0,6.0,-153.0,53.0,12.0,86.0
54.0,-27.0,11.0,-1.0,-179.0,87.0,25.0,126.0
40.0,4.0,-11.0,-9.0,-213.0,68.0,24.0,128.0
18.0,24.0,-23.0,5.0,-174.0,107.0,5.0,111.0
9.0,-8.0,-9.0,-33.0,-162.0,39.0,4.0,141.0
8.0,33.0,-22.0,-40.0,-155.0,-123.0,58.0,148.0
-5.0,85.0,-18.0,-4.0,-83.0,-240.0,50.0,157.0
-1.0,57.0,-16.0,-5.0,-74.0,-258.0,47.0,137.0
5.0,20.0,-38.0,-2.0,-78.0,-126.0,47.0,116.0
-17.0,6.0,-12.0,2.0,-54.0,71.0,21.0,134.0
-39.0,-28.0,-25.0,-10.0,-55.0,93.0,32.0,136.0
-27.0,-30.0,-49.0,-4.0,-37.0,66.0,8.0,99.0
-18.0,-3.0,-32.0,1.0,-43.0,81.0,4.0,65.0
-9.0,0.0,-36.0,7.0,-36.0,64.0,0.0,66.0
-25.0,12.0,-2.0,9.0,-34.0,87.0,16.0,71.0
-31.0,17.0,6.0,10.0,-42.0,25.0,21.0,24.0
-8.0,20.0,-1.0,-13.0,-7.0,36.0,-4.0,-5.0
-29.0,28.0,18.0,-20.0,-3.0,-37.0,17.0,-49.0
-15.0,46.0,13.0,-2.0,-19.0,-88.0,8.0,-68.0
-34.0,60.0,-13.0,-24.0,-34.0,25.0,-6.0,-84.0
-47.0,122.0,-17.0,-4.0,-54.0,89.0,-7.0,-123.0
-2.0,105.0,7.0,1.0,-55.0,107.0,24.0,-131.0
38.0,48.0,-11.0,-10.0,-29.0,132.0,45.0,-158.0
83.0,-30.0,-3.0,-27.0,7.0,86.0,45.0,-156.0
108.0,-151.0,-31.0,-56.0,-28.0,57.0,48.0,-211.0
83.0,-139.0,-42.0,-32.0,-27.0,107.0,25.0,-228.0
4.0,-70.0,-11.0,-35.0,-21.0,77.0,42.0,-240.0
-33.0,-28.0,17.0,-41.0,-40.0,81.0,42.0,-252.0
-39.0,-18.0,16.0,-24.0,-15.0,85.0,26.0,-234.0
-31.0,-1.0,-17.0,-41.0,18.0,79.0,45.0,-260.0
-35.0,12.0,-1.0,-11.0,43.0,87.0,41.0,-262.0
-10.0,3.0,-18.0,-28.0,19.0,83.0,23.0,-251.0
23.0,-2.0,-18.0,-45.0,23.0,71.0,15.0,-258.0
13.0,21.0,1.0,-28.0,40.0,53.0,22.0,-280.0
-14.0,36.0,-10.0,-17.0,3.0,66.0,15.0,-268.0
24.0,37.0,-29.0,7.0,9.0,42.0,7.0,-290.0
39.0,12.0,-24.0,-19.0,0.0,48.0,5.0,-327.0
15.0,4.0,7.0,2.0,-20.0,51.0,25.0,-327.0
7.0,20.0,4.0,11.0,-33.0,68.0,48.0,-313.0
-25.0,-3.0,-8.0,7.0,-34.0,77.0,39.0,-301.0
-41.0,7.0,-16.0,-2.0,-8.0,80.0,13.0,-305.0
-61.0,16.0,5.0,-36.0,-15.0,98.0,-1.0,-274.0
-62.0,28.0,12.0,-7.0,-28.0,76.0,-9.0,-269.0
-69.0,51.0,-6.0,-32.0,-13.0,74.0,-2.0,-226.0
-55.0,58.0,-7.0,-24.0,-2.0,62.0,21.0,-170.0
12.0,66.0,-6.0,-31.0,18.0,28.0,0.0,-223.0
74.0,45.0,1.0,-35.0,12.0,-22.0,22.0,-234.0
62.0,15.0,0.0,-13.0,7.0,-39.0,17.0,-166.0
21.0,-28.0,-1.0,-40.0,16.0,-28.0,21.0,-131.0
61.0,-27.0,-5.0,-34.0,-37.0,-29.0,19.0,-125.0
28.0,-76.0,18.0,-45.0,-73.0,-40.0,0.0,-36.0
-22.0,-121.0,-9.0,-9.0,-82.0,-6.0,10.0,-34.0
-4.0,-91.0,-24.0,3.0,-123.0,25.0,13.0,-37.0
-18.0,-44.0,10.0,-13.0,-124.0,-4.0,19.0,3.0
3.0,-18.0,-26.0,7.0,-105.0,20.0,10.0,-10.0
-54.0,7.0,-12.0,-9.0,-135.0,20.0,15.0,8.0
-72.0,51.0,8.0,-1.0,-144.0,47.0,8.0,9.0
-63.0,74.0,10.0,0.0,-141.0,57.0,-1.0,29.0
-69.0,41.0,4.0,2.0,-144.0,32.0,10.0,39.0
-11.0,57.0,-6.0,-19.0,-131.0,53.0,32.0,49.0
-28.0,72.0,8.0,-36.0,-123.0,62.0,31.0,106.0
-35.0,50.0,-17.0,-9.0,-69.0,67.0,24.0,100.0
17.0,45.0,15.0,13.0,-20.0,49.0,31.0,64.0
39.0,31.0,23.0,-10.0,-13.0,78.0,20.0,78.0
-1.0,29.0,1.0,-35.0,-5.0,82.0,18.0,100.0
0.0,-2.0,18.0,-18.0,12.0,64.0,19.0,108.0
-4.0,-55.0,20.0,-28.0,25.0,95.0,35.0,91.0
-32.0,-59.0,21.0,-8.0,47.0,73.0,20.0,90.0
-25.0,-31.0,26.0,6.0,40.0,13.0,13.0,104.0
-29.0,-40.0,42.0,-19.0,48.0,-64.0,16.0,124.0
-42.0,-31.0,35.0,-15.0,77.0,-32.0,14.0,119.0
-14.0,-6.0,18.0,31.0,68.0,21.0,14.0,106.0
31.0,10.0,-3.0,26.0,36.0,4.0,4.0,109.0
45.0,36.0,11.0,0.0,29.0,9.0,30.0,102.0
82.0,27.0,26.0,3.0,19.0,-8.0,11.0,124.0
89.0,28.0,5.0,-7.0,-10.0,-58.0,9.0,102.0
81.0,28.0,5.0,-10.0,5.0,-104.0,13.0,106.0
106.0,8.0,-9.0,-21.0,52.0,-76.0,4.0,108.0
145.0,-20.0,-9.0,-35.0,52.0,-30.0,-8.0,106.0
92.0,-11.0,-22.0,-30.0,49.0,-33.0,-6.0,135.0
42.0,-7.0,-28.0,-32.0,75.0,-38.0,5.0,136.0
15.0,10.0,-23.0,-30.0,66.0,-31.0,-21.0,137.0
-193.0,14.0,-23.0,-19.0,61.0,-39.0,-10.0,119.0
-144.0,-44.0,-26.0,-30.0,63.0,-36.0,-15.0,130.0
-31.0,-72.0,-39.0,-37.0,58.0,-3.0,-11.0,122.0
-159.0,-72.0,-29.0,-48.0,110.0,21.0,9.0,100.0
64.0,-47.0,-53.0,-40.0,151.0,46.0,14.0,83.0
274.0,-53.0,-45.0,-24.0,134.0,69.0,-7.0,86.0
257.0,-71.0,-14.0,-33.0,125.0,102.0,-1.0,83.0
209.0,-70.0,-21.0,-8.0,119.0,112.0,40.0,66.0
97.0,-38.0,12.0,18.0,137.0,116.0,29.0,86.0
-73.0,4.0,9.0,-20.0,141.0,115.0,18.0,70.0
-306.0,34.0,17.0,-29.0,147.0,90.0,41.0,55.0
-388.0,53.0,14.0,-39.0,136.0,71.0,24.0,53.0
-71.0,41.0,-1.0,-24.0,140.0,30.0,21.0,74.0
333.0,48.0,11.0,15.0,122.0,29.0,25.0,72.0
108.0,52.0,10.0,-23.0,129.0,37.0,13.0,53.0
-86.0,85.0,19.0,-14.0,188.0,17.0,9.0,38.0
-4.0,90.0,-5.0,-5.0,179.0,89.0,24.0,31.0
-143.0,75.0,16.0,-14.0,180.0,151.0,53.0,33.0
-386.0,46.0,36.0,0.0,193.0,97.0,50.0,4.0
-450.0,13.0,5.0,5.0,213.0,6.0,87.0,-13.0
-266.0,20.0,21.0,15.0,244.0,-24.0,78.0,-43.0
-132.0,11.0,19.0,10.0,224.0,17.0,73.0,-18.0
-118.0,-41.0,10.0,16.0,235.0,-47.0,100.0,-42.0
-221.0,-45.0,21.0,-7.0,247.0,-11.0,61.0,-98.0
-385.0,-44.0,13.0,-1.0,184.0,273.0,53.0,-61.0
-563.0,-53.0,-12.0,9.0,192.0,349.0,67.0,-77.0
-544.0,-27.0,2.0,-12.0,152.0,191.0,88.0,-108.0
-374.0,11.0,21.0,6.0,134.0,126.0,64.0,-98.0
-141.0,58.0,1.0,-9.0,167.0,135.0,50.0,-93.0
147.0,82.0,-1.0,-28.0,123.0,115.0,51.0,-101.0
212.0,82.0,3.0,-36.0,96.0,73.0,35.0,-96.0
268.0,28.0,3.0,-13.0,77.0,15.0,59.0,-105.0
266.0,40.0,1.0,-30.0,92.0,27.0,68.0,-120.0
263.0,57.0,-8.0,-13.0,65.0,53.0,66.0,-130.0
277.0,70.0,-14.0,-28.0,38.0,78.0,37.0,-121.0
306.0,77.0,-23.0,-49.0,34.0,94.0,17.0,-109.0
334.0,38.0,-22.0,-28.0,31.0,105.0,1.0,-130.0
269.0,22.0,-24.0,-48.0,46.0,115.0,-29.0,-122.0
209.0,-58.0,-15.0,-30.0,21.0,54.0,-21.0,-89.0
107.0,-46.0,-22.0,-33.0,22.0,25.0,8.0,-100.0
116.0,-38.0,-21.0,-18.0,41.0,5.0,-4.0,-101.0
104.0,-68.0,-21.0,6.0,25.0,17.0,-18.0,-67.0
33.0,-44.0,-34.0,-21.0,20.0,20.0,-12.0,-78.0
68.0,-78.0,-39.0,-24.0,29.0,-10.0,0.0,-55.0
127.0,-35.0,-45.0,-38.0,30.0,6.0,8.0,-19.0
86.0,19.0,-14.0,-40.0,53.0,-12.0,-3.0,-9.0
-40.0,45.0,-5.0,-36.0,35.0,23.0,-2.0,7.0
-49.0,57.0,-25.0,-39.0,1.0,47.0,25.0,37.0
-88.0,34.0,-30.0,-34.0,18.0,39.0,-1.0,46.0
-190.0,20.0,-21.0,-41.0,8.0,46.0,-6.0,96.0
18.0,-1.0,-5.0,-7.0,29.0,64.0,45.0,177.0
269.0,-31.0,0.0,0.0,41.0,64.0,53.0,214.0
208.0,-67.0,-3.0,0.0,17.0,20.0,71.0,264.0
118.0,-66.0,-24.0,0.0,24.0,-30.0,43.0,261.0
18.0,-59.0,-10.0,-13.0,41.0,-66.0,31.0,286.0
34.0,-47.0,-3.0,-14.0,85.0,22.0,29.0,361.0
103.0,-46.0,-24.0,9.0,68.0,-4.0,19.0,377.0
-12.0,-70.0,-10.0,11.0,43.0,-21.0,34.0,397.0
-96.0,-28.0,-10.0,-9.0,47.0,-8.0,17.0,395.0
-96.0,10.0,-13.0,0.0,61.0,-46.0,17.0,394.0
-233.0,30.0,-6.0,1.0,101.0,-87.0,37.0,395.0
-136.0,40.0,-17.0,3.0,83.0,-232.0,36.0,397.0
186.0,4.0,-6.0,-7.0,65.0,-267.0,21.0,397.0
169.0,-1.0,-4.0,-25.0,31.0,-217.0,25.0,396.0
-93.0,7.0,-13.0,-20.0,45.0,-59.0,43.0,417.0
-182.0,14.0,7.0,-13.0,49.0,40.0,31.0,397.0
61.0,53.0,-9.0,-33.0,47.0,-49.0,47.0,422.0
90.0,29.0,-3.0,-2.0,63.0,-42.0,47.0,434.0
171.0,56.0,-3.0,12.0,60.0,-29.0,47.0,438.0
383.0,87.0,-6.0,6.0,66.0,-24.0,46.0,438.0
137.0,38.0,12.0,19.0,41.0,-39.0,28.0,426.0
-98.0,28.0,-3.0,23.0,47.0,-78.0,56.0,434.0
11.0,28.0,9.0,35.0,49.0,-65.0,32.0,409.0
0.0,-9.0,7.0,11.0,45.0,-71.0,20.0,373.0
-166.0,-22.0,4.0,-12.0,-14.0,-80.0,41.0,367.0
-183.0,15.0,-17.0,-17.0,-49.0,-86.0,14.0,336.0
47.0,29.0,-40.0,-15.0,-46.0,-94.0,30.0,314.0
287.0,36.0,-21.0,-26.0,-83.0,-83.0,28.0,324.0
471.0,14.0,-37.0,-36.0,-80.0,-102.0,-2.0,296.0
705.0,-11.0,-37.0,-25.0,-93.0,-118.0,15.0,271.0
371.0,-28.0,-25.0,-23.0,-95.0,-72.0,16.0,255.0
-143.0,-59.0,-20.0,-5.0,-91.0,-105.0,27.0,264.0
-433.0,-56.0,-13.0,-28.0,-88.0,-102.0,13.0,237.0
-679.0,-66.0,-23.0,-26.0,-76.0,-76.0,10.0,228.0
-761.0,-41.0,1.0,-22.0,-72.0,-42.0,33.0,255.0
-844.0,28.0,4.0,-14.0,-56.0,0.0,15.0,221.0
-843.0,38.0,-4.0,-25.0,-83.0,-30.0,16.0,200.0
-901.0,15.0,-8.0,-16.0,-95.0,-68.0,8.0,165.0
-883.0,0.0,-16.0,-26.0,-103.0,-156.0,1.0,126.0
-629.0,2.0,-20.0,-29.0,-105.0,-208.0,6.0,71.0
-409.0,44.0,-6.0,-3.0,-95.0,-125.0,-19.0,22.0
-453.0,58.0,-14.0,-38.0,-77.0,-55.0,9.0,116.0
-250.0,56.0,-6.0,-3.0,-30.0,-82.0,16.0,125.0
220.0,67.0,-3.0,4.0,-38.0,-78.0,-14.0,100.0
503.0,60.0,-1.0,-9.0,-42.0,-59.0,-18.0,135.0
965.0,58.0,-2.0,-4.0,-18.0,-49.0,3.0,116.0
772.0,-21.0,-30.0,-22.0,0.0,-55.0,19.0,73.0
238.0,-112.0,-12.0,-40.0,37.0,-90.0,22.0,30.0
238.0,-83.0,-3.0,-22.0,3.0,-22.0,36.0,26.0
382.0,-35.0,16.0,-19.0,8.0,2.0,26.0,-80.0
538.0,-14.0,-7.0,-11.0,27.0,-11.0,26.0,-98.0
373.0,18.0,-12.0,11.0,21.0,7.0,38.0,-29.0
86.0,28.0,24.0,-15.0,14.0,-13.0,41.0,-47.0
-90.0,55.0,12.0,7.0,-5.0,11.0,51.0,-19.0
-78.0,75.0,15.0,7.0,37.0,-6.0,34.0,-59.0
4.0,75.0,0.0,0.0,49.0,-12.0,10.0,-54.0
65.0,82.0,-13.0,-6.0,34.0,-19.0,19.0,-37.0
147.0,33.0,3.0,2.0,50.0,-1.0,23.0,-55.0
25.0,-3.0,-16.0,-16.0,23.0,49.0,0.0,-87.0
-66.0,-54.0,-4.0,-23.0,21.0,58.0,7.0,-107.0
27.0,-80.0,-7.0,-11.0,43.0,86.0,1.0,-97.0
269.0,-48.0,-8.0,-29.0,44.0,81.0,-15.0,-135.0
116.0,-47.0,-9.0,-46.0,44.0,102.0,4.0,-126.0
166.0,-28.0,-26.0,-51.0,38.0,126.0,-22.0,-144.0
524.0,-38.0,-41.0,-41.0,29.0,92.0,-23.0,-124.0
318.0,-29.0,-49.0,-65.0,52.0,59.0,21.0,-58.0
176.0,-7.0,4.0,-36.0,61.0,95.0,6.0,47.0
21.0,18.0,19.0,-34.0,66.0,135.0,4.0,30.0
-77.0,51.0,2.0,-30.0,89.0,85.0,21.0,-73.0
-183.0,21.0,38.0,-9.0,75.0,105.0,17.0,-83.0
-384.0,3.0,34.0,-16.0,83.0,129.0,33.0,-181.0
-256.0,30.0,31.0,12.0,90.0,139.0,32.0,-240.0
-245.0,40.0,15.0,1.0,102.0,207.0,28.0,-287.0
-372.0,29.0,1.0,-34.0,78.0,145.0,13.0,-297.0
-388.0,17.0,19.0,11.0,84.0,124.0,28.0,-282.0
-379.0,-34.0,-10.0,10.0,96.0,147.0,31.0,-134.0
-372.0,-13.0,11.0,-39.0,38.0,118.0,22.0,-10.0
-188.0,10.0,41.0,-11.0,47.0,82.0,59.0,-24.0
-98.0,-15.0,-1.0,1.0,29.0,79.0,82.0,62.0
-85.0,17.0,-9.0,23.0,13.0,86.0,49.0,8.0
56.0,69.0,14.0,20.0,11.0,67.0,53.0,19.0
8.0,57.0,24.0,-19.0,11.0,96.0,75.0,-32.0
7.0,41.0,21.0,7.0,28.0,114.0,41.0,-59.0
143.0,24.0,21.0,-19.0,23.0,102.0,42.0,-34.0
263.0,22.0,3.0,-32.0,12.0,98.0,27.0,-105.0
321.0,59.0,-8.0,-21.0,-11.0,129.0,32.0,-64.0
249.0,20.0,2.0,-5.0,-37.0,127.0,26.0,-109.0
220.0,-1.0,11.0,3.0,-53.0,144.0,22.0,-95.0
157.0,18.0,2.0,-35.0,-65.0,234.0,28.0,-128.0
98.0,67.0,0.0,7.0,-59.0,260.0,45.0,-108.0
101.0,48.0,18.0,-1.0,-9.0,188.0,45.0,-104.0
60.0,-7.0,7.0,-15.0,-26.0,155.0,14.0,-141.0
11.0,9.0,-9.0,4.0,-38.0,147.0,14.0,-93.0
-23.0,-14.0,-5.0,-31.0,-50.0,119.0,-1.0,-126.0
20.0,-19.0,2.0,-19.0,-69.0,138.0,0.0,-119.0
66.0,-24.0,1.0,-11.0,-32.0,90.0,-7.0,-124.0
-60.0,-67.0,-43.0,-23.0,-64.0,93.0,-6.0,-78.0
-280.0,-127.0,-39.0,-14.0,-55.0,93.0,32.0,-69.0
-180.0,-72.0,-1.0,5.0,-29.0,86.0,45.0,-111.0
-21.0,-42.0,15.0,-22.0,-53.0,82.0,36.0,-100.0
40.0,-55.0,-31.0,-46.0,-58.0,57.0,25.0,-122.0
114.0,-6.0,-36.0,-15.0,-75.0,114.0,36.0,-109.0
62.0,14.0,-9.0,-36.0,-90.0,78.0,25.0,-91.0
-2.0,-5.0,-32.0,-25.0,-78.0,48.0,29.0,-104.0
-10.0,-22.0,-11.0,-12.0,-91.0,19.0,7.0,-109.0
-74.0,-39.0,-32.0,-8.0,-95.0,67.0,1.0,-109.0
-55.0,-63.0,-6.0,-7.0,-53.0,87.0,37.0,-90.0
23.0,-34.0,14.0,10.0,-52.0,34.0,23.0,-50.0
-32.0,-31.0,-26.0,3.0,-36.0,97.0,22.0,-59.0
-43.0,-12.0,3.0,-13.0,-38.0,129.0,18.0,-61.0
-33.0,20.0,-31.0,7.0,-75.0,164.0,-6.0,-68.0
-8.0,38.0,-69.0,-37.0,-85.0,126.0,-6.0,-39.0
-53.0,66.0,-48.0,-55.0,-70.0,53.0,-3.0,-17.0
-77.0,74.0,-11.0,-59.0,-60.0,-8.0,-22.0,-9.0
-91.0,52.0,2.0,-59.0,-69.0,-49.0,-2.0,12.0
-88.0,-12.0,-14.0,-96.0,-67.0,-45.0,20.0,-2.0
43.0,-60.0,-13.0,-78.0,-47.0,-146.0,6.0,17.0
82.0,-40.0,20.0,-40.0,-31.0,-47.0,-7.0,-20.0
65.0,1.0,31.0,-18.0,-8.0,47.0,-1.0,-25.0
-33.0,22.0,27.0,5.0,-9.0,-3.0,8.0,9.0
7.0,36.0,29.0,6.0,-9.0,64.0,17.0,-25.0
-66.0,-43.0,15.0,3.0,7.0,20.0,1.0,-22.0
-167.0,-77.0,-7.0,-40.0,14.0,-2.0,22.0,-42.0
-88.0,-86.0,-8.0,-34.0,17.0,-33.0,9.0,88.0
-114.0,-127.0,6.0,-22.0,1.0,-24.0,19.0,341.0
-70.0,-36.0,7.0,-39.0,18.0,45.0,7.0,397.0
6.0,26.0,10.0,-12.0,17.0,12.0,-6.0,319.0
-13.0,43.0,-10.0,-19.0,24.0,21.0,17.0,125.0
-20.0,56.0,-3.0,-25.0,28.0,6.0,8.0,-117.0
49.0,96.0,15.0,-10.0,21.0,42.0,42.0,-380.0
107.0,132.0,12.0,-2.0,46.0,31.0,41.0,-514.0
101.0,79.0,2.0,-10.0,23.0,-2.0,61.0,-577.0
127.0,87.0,12.0,4.0,31.0,23.0,41.0,-708.0
235.0,98.0,10.0,31.0,59.0,5.0,49.0,-352.0
119.0,19.0,-3.0,-8.0,31.0,-8.0,73.0,42.0
-103.0,-27.0,-10.0,10.0,-12.0,17.0,50.0,70.0
-110.0,28.0,8.0,8.0,-4.0,-7.0,78.0,136.0
-110.0,58.0,-11.0,-24.0,-1.0,-26.0,56.0,184.0
-77.0,57.0,-31.0,0.0,-24.0,4.0,54.0,230.0
-23.0,58.0,-16.0,3.0,-36.0,-14.0,52.0,177.0
-12.0,33.0,-22.0,9.0,-64.0,-16.0,20.0,139.0
-4.0,15.0,-6.0,-10.0,-31.0,-32.0,25.0,146.0
-44.0,-18.0,-21.0,-16.0,-14.0,5.0,27.0,125.0
-54.0,-39.0,-15.0,0.0,0.0,-16.0,36.0,120.0
-41.0,-16.0,1.0,-12.0,-5.0,-47.0,25.0,95.0
-34.0,-55.0,-9.0,-8.0,-15.0,-49.0,6.0,108.0
-19.0,-39.0,-16.0,-1.0,28.0,-59.0,7.0,83.0
5.0,10.0,-14.0,-37.0,25.0,-9.0,-21.0,90.0
8.0,-13.0,-8.0,-51.0,40.0,-46.0,2.0,108.0
-16.0,-19.0,-20.0,-60.0,44.0,-44.0,16.0,83.0
-24.0,12.0,-15.0,-20.0,58.0,-42.0,26.0,105.0
-34.0,22.0,-6.0,4.0,83.0,-23.0,23.0,88.0
21.0,22.0,-12.0,-22.0,65.0,64.0,9.0,103.0
20.0,55.0,-9.0,-10.0,77.0,27.0,8.0,112.0
-11.0,33.0,-4.0,-26.0,116.0,-2.0,24.0,103.0
-15.0,-7.0,-26.0,-41.0,138.0,29.0,50.0,104.0
-45.0,12.0,-5.0,-45.0,140.0,72.0,48.0,111.0
-12.0,9.0,-12.0,-39.0,145.0,100.0,56.0,181.0
-18.0,34.0,-21.0,-36.0,135.0,100.0,69.0,274.0
-47.0,36.0,-13.0,-22.0,103.0,113.0,45.0,239.0
-29.0,45.0,-14.0,10.0,112.0,84.0,25.0,120.0
-20.0,59.0,-5.0,0.0,121.0,10.0,38.0,71.0
-4.0,39.0,6.0,16.0,118.0,-67.0,62.0,-13.0
-1.0,4.0,12.0,20.0,134.0,-49.0,37.0,-96.0
41.0,-42.0,3.0,6.0,130.0,19.0,50.0,-205.0
16.0,-27.0,30.0,2.0,106.0,-46.0,42.0,-333.0
-24.0,-28.0,7.0,-11.0,111.0,-39.0,0.0,-274.0
4.0,-11.0,13.0,-21.0,128.0,49.0,28.0,-34.0
9.0,-12.0,10.0,4.0,100.0,92.0,6.0,-12.0
39.0,-12.0,10.0,6.0,106.0,131.0,12.0,-51.0
30.0,-31.0,10.0,19.0,131.0,115.0,10.0,-5.0
-6.0,-33.0,-12.0,9.0,119.0,144.0,-5.0,-45.0
-2.0,-53.0,-14.0,-44.0,92.0,126.0,-8.0,-13.0
-37.0,-91.0,-37.0,-57.0,25.0,40.0,-25.0,-26.0
-48.0,-72.0,-36.0,-26.0,26.0,-48.0,-2.0,-50.0
-49.0,-63.0,-23.0,-31.0,37.0,-68.0,-22.0,-88.0
-44.0,-41.0,-23.0,-54.0,66.0,54.0,8.0,-63.0
-40.0,9.0,-23.0,-28.0,86.0,78.0,25.0,-65.0
-23.0,-3.0,-9.0,-28.0,78.0,29.0,-5.0,-158.0
14.0,-36.0,-25.0,-40.0,94.0,-58.0,10.0,-84.0
-29.0,-33.0,-32.0,-41.0,102.0,-122.0,-8.0,-92.0
-45.0,-17.0,-9.0,-8.0,131.0,-46.0,6.0,-129.0
-24.0,30.0,12.0,10.0,125.0,21.0,40.0,-124.0
-35.0,44.0,5.0,-15.0,96.0,-10.0,1.0,-105.0
-52.0,46.0,-2.0,-1.0,102.0,31.0,16.0,-33.0
-31.0,25.0,2.0,5.0,85.0,28.0,40.0,77.0
22.0,-14.0,-7.0,12.0,101.0,-6.0,50.0,292.0
35.0,-23.0,-11.0,-1.0,122.0,1.0,50.0,409.0
23.0,-36.0,0.0,0.0,112.0,-10.0,38.0,308.0
-7.0,-11.0,21.0,15.0,101.0,16.0,34.0,111.0
-19.0,10.0,8.0,20.0,122.0,31.0,18.0,-88.0
-17.0,18.0,14.0,44.0,100.0,144.0,40.0,-312.0
-25.0,60.0,17.0,16.0,45.0,199.0,40.0,-360.0
-28.0,30.0,18.0,31.0,75.0,151.0,20.0,-508.0
-15.0,55.0,15.0,38.0,113.0,87.0,32.0,-990.0
-34.0,106.0,3.0,37.0,109.0,22.0,42.0,-883.0
-21.0,89.0,14.0,20.0,82.0,43.0,51.0,-282.0
14.0,72.0,23.0,15.0,119.0,74.0,61.0,-132.0
4.0,66.0,-3.0,0.0,96.0,37.0,43.0,-84.0
-5.0,57.0,-31.0,-30.0,56.0,26.0,40.0,38.0
-8.0,26.0,-21.0,-35.0,56.0,37.0,37.0,42.0
-4.0,-18.0,-24.0,-41.0,37.0,-4.0,12.0,100.0
-12.0,-66.0,-17.0,-2.0,47.0,-7.0,22.0,104.0
3.0,-85.0,-8.0,-18.0,33.0,19.0,13.0,120.0
-16.0,-110.0,-24.0,-45.0,38.0,32.0,14.0,139.0
-81.0,-77.0,-28.0,-46.0,44.0,30.0,9.0,170.0
-76.0,-28.0,-21.0,-54.0,48.0,-1.0,-15.0,176.0
-94.0,-23.0,-29.0,-32.0,61.0,-39.0,8.0,138.0
-77.0,11.0,-21.0,-23.0,30.0,-57.0,9.0,150.0
-71.0,46.0,-11.0,-41.0,27.0,-36.0,6.0,134.0
-66.0,84.0,-28.0,-49.0,3.0,-12.0,18.0,100.0
-11.0,52.0,-31.0,-50.0,1.0,-62.0,14.0,56.0
14.0,13.0,-17.0,-21.0,17.0,-59.0,17.0,96.0
54.0,-32.0,-1.0,5.0,24.0,-33.0,32.0,164.0
119.0,-83.0,-7.0,-27.0,16.0,-55.0,37.0,157.0
151.0,-114.0,-29.0,-17.0,-24.0,-43.0,36.0,108.0
98.0,-130.0,-23.0,-9.0,-36.0,-55.0,47.0,69.0
-10.0,-53.0,-4.0,-25.0,-24.0,-78.0,50.0,39.0
-82.0,-42.0,13.0,-25.0,-36.0,-49.0,62.0,46.0
-98.0,18.0,1.0,-27.0,-49.0,-27.0,32.0,62.0
-71.0,41.0,9.0,-28.0,-29.0,-16.0,45.0,41.0
-75.0,16.0,14.0,-29.0,-24.0,-30.0,42.0,22.0
-114.0,128.0,-21.0,-18.0,-34.0,-11.0,34.0,14.0
-120.0,146.0,-13.0,-34.0,-18.0,-2.0,48.0,13.0
-87.0,109.0,-1.0,-29.0,15.0,-65.0,28.0,3.0
-81.0,146.0,4.0,-21.0,39.0,-32.0,43.0,36.0
-39.0,187.0,11.0,1.0,62.0,-25.0,46.0,53.0
12.0,98.0,19.0,-8.0,61.0,-30.0,49.0,32.0
60.0,-81.0,18.0,-38.0,37.0,1.0,59.0,33.0
58.0,-125.0,26.0,-19.0,18.0,-106.0,44.0,35.0
17.0,-155.0,37.0,-18.0,5.0,-112.0,35.0,47.0
11.0,-132.0,9.0,-18.0,41.0,36.0,44.0,49.0
-44.0,-38.0,24.0,6.0,55.0,93.0,27.0,51.0
-41.0,-12.0,18.0,13.0,25.0,66.0,35.0,51.0
-29.0,-31.0,-29.0,-22.0,-52.0,62.0,36.0,70.0
-25.0,-76.0,4.0,-9.0,-78.0,14.0,25.0,140.0
12.0,-38.0,-6.0,-3.0,-51.0,-25.0,25.0,177.0
-6.0,-24.0,-9.0,-3.0,-56.0,-54.0,35.0,92.0
-8.0,1.0,33.0,-2.0,-66.0,-94.0,54.0,3.0
-8.0,98.0,2.0,-12.0,-59.0,16.0,41.0,-93.0
-7.0,99.0,-20.0,10.0,-44.0,17.0,46.0,-165.0
-17.0,63.0,-32.0,-23.0,-58.0,22.0,33.0,-179.0
15.0,45.0,-23.0,-36.0,-40.0,53.0,25.0,-232.0
52.0,22.0,6.0,-20.0,-52.0,2.0,17.0,-248.0
33.0,-6.0,5.0,-31.0,-42.0,40.0,-10.0,-105.0
33.0,6.0,3.0,-50.0,-38.0,49.0,-4.0,0.0
0.0,20.0,-20.0,-49.0,-56.0,51.0,22.0,-36.0
-9.0,34.0,-13.0,-34.0,-72.0,8.0,9.0,6.0
-1.0,18.0,-15.0,-36.0,-94.0,-24.0,-39.0,-15.0
18.0,-16.0,-22.0,-37.0,-93.0,34.0,-3.0,-34.0
33.0,-6.0,-1.0,-24.0,-96.0,29.0,40.0,2.0
3.0,-16.0,-13.0,-36.0,-72.0,31.0,28.0,6.0
-73.0,-26.0,-10.0,-21.0,-81.0,15.0,26.0,3.0
-135.0,-86.0,-1.0,-3.0,-78.0,4.0,-1.0,18.0
-114.0,-49.0,3.0,-44.0,-51.0,31.0,13.0,54.0
-61.0,-5.0,-7.0,-42.0,-75.0,9.0,47.0,65.0
-21.0,-15.0,-27.0,-19.0,-90.0,36.0,17.0,85.0
23.0,6.0,17.0,5.0,-63.0,42.0,20.0,87.0
86.0,-28.0,2.0,13.0,-6.0,95.0,48.0,70.0
89.0,-45.0,2.0,19.0,39.0,137.0,53.0,93.0
53.0,-47.0,4.0,9.0,46.0,115.0,25.0,98.0
13.0,-10.0,2.0,-9.0,60.0,151.0,5.0,79.0
-4.0,12.0,7.0,-4.0,31.0,124.0,22.0,71.0
7.0,34.0,-11.0,-1.0,19.0,73.0,10.0,65.0
5.0,36.0,-1.0,-2.0,5.0,19.0,20.0,44.0
-23.0,34.0,1.0,-13.0,-33.0,-72.0,17.0,12.0
-40.0,18.0,10.0,-22.0,5.0,-116.0,-18.0,22.0
-21.0,-20.0,-22.0,-23.0,26.0,-56.0,3.0,1.0
17.0,0.0,-21.0,-13.0,-13.0,-15.0,-11.0,-28.0
20.0,8.0,-10.0,-5.0,-2.0,-23.0,-27.0,-24.0
36.0,5.0,-5.0,8.0,-18.0,-37.0,6.0,-51.0
79.0,-7.0,-2.0,-20.0,-52.0,-72.0,12.0,-40.0
56.0,3.0,-17.0,-14.0,-48.0,-49.0,28.0,-18.0
30.0,15.0,28.0,6.0,-40.0,26.0,16.0,-38.0
31.0,26.0,11.0,-9.0,-42.0,118.0,-5.0,-41.0
16.0,44.0,-20.0,-3.0,-46.0,124.0,9.0,-69.0
24.0,-1.0,2.0,10.0,-33.0,79.0,-11.0,-54.0
-23.0,4.0,-13.0,20.0,-30.0,29.0,29.0,-49.0
-113.0,8.0,-4.0,15.0,-12.0,71.0,36.0,-40.0
-90.0,-38.0,5.0,33.0,5.0,93.0,19.0,-30.0
-12.0,-3.0,-11.0,15.0,3.0,61.0,39.0,-44.0
-2.0,-1.0,-6.0,10.0,-8.0,39.0,24.0,-25.0
4.0,31.0,6.0,0.0,-5.0,12.0,42.0,-29.0
54.0,69.0,-25.0,-34.0,-10.0,53.0,44.0,-8.0
71.0,47.0,-27.0,-26.0,-18.0,72.0,20.0,-5.0
73.0,19.0,-27.0,-35.0,-8.0,115.0,42.0,3.0
65.0,34.0,-17.0,-38.0,2.0,97.0,40.0,-8.0
33.0,34.0,0.0,-37.0,16.0,84.0,17.0,1.0
21.0,23.0,10.0,-32.0,4.0,97.0,26.0,18.0
0.0,46.0,10.0,-26.0,-7.0,76.0,16.0,-6.0
-20.0,18.0,12.0,-32.0,5.0,70.0,14.0,34.0
-40.0,14.0,24.0,-5.0,3.0,95.0,33.0,30.0
-41.0,15.0,-12.0,-15.0,12.0,137.0,29.0,26.0
-78.0,9.0,-24.0,-42.0,16.0,129.0,18.0,15.0
-129.0,-2.0,-15.0,-39.0,28.0,78.0,-11.0,-9.0
-48.0,-10.0,-28.0,-47.0,16.0,50.0,-3.0,-2.0
36.0,13.0,-30.0,-69.0,36.0,67.0,16.0,1.0
42.0,8.0,-21.0,-44.0,78.0,74.0,15.0,26.0
-1.0,-6.0,-7.0,-32.0,50.0,118.0,8.0,39.0
-39.0,-3.0,7.0,-17.0,56.0,107.0,-16.0,50.0
-31.0,-18.0,-1.0,18.0,49.0,48.0,19.0,61.0
14.0,16.0,-9.0,13.0,43.0,-9.0,40.0,71.0
-54.0,15.0,-8.0,16.0,55.0,-33.0,58.0,84.0
-361.0,16.0,-9.0,10.0,25.0,40.0,56.0,100.0
-245.0,26.0,-11.0,-12.0,23.0,35.0,22.0,111.0
408.0,-1.0,-1.0,16.0,17.0,-20.0,12.0,86.0
603.0,4.0,-18.0,5.0,18.0,25.0,0.0,64.0
434.0,37.0,-22.0,3.0,14.0,64.0,20.0,58.0
214.0,-18.0,-17.0,19.0,16.0,145.0,13.0,56.0
-8.0,-88.0,-20.0,-19.0,19.0,183.0,2.0,33.0
-121.0,-54.0,-20.0,-15.0,16.0,199.0,9.0,10.0
-126.0,-14.0,-25.0,-6.0,31.0,160.0,13.0,21.0
-89.0,31.0,-34.0,0.0,47.0,78.0,25.0,3.0
-50.0,24.0,-50.0,-24.0,69.0,100.0,10.0,-44.0
60.0,2.0,-31.0,-39.0,80.0,76.0,24.0,-64.0
-55.0,23.0,-16.0,-6.0,108.0,62.0,32.0,-31.0
-124.0,23.0,-2.0,13.0,105.0,30.0,30.0,-31.0
-309.0,0.0,-1.0,7.0,116.0,-4.0,54.0,-53.0
-417.0,-18.0,-20.0,-8.0,123.0,5.0,73.0,-46.0
-234.0,19.0,-3.0,-10.0,105.0,27.0,54.0,-36.0
-228.0,49.0,-5.0,-8.0,114.0,5.0,32.0,-41.0
-248.0,55.0,-3.0,-18.0,112.0,-28.0,72.0,-48.0
-354.0,49.0,2.0,-17.0,122.0,-3.0,43.0,-21.0
-321.0,14.0,18.0,2.0,89.0,-4.0,18.0,-17.0
-234.0,-8.0,14.0,-25.0,77.0,2.0,32.0,-37.0
-234.0,-1.0,3.0,-5.0,96.0,13.0,12.0,-67.0
-127.0,9.0,20.0,-14.0,81.0,9.0,29.0,-61.0
50.0,9.0,1.0,-20.0,56.0,-6.0,1.0,-64.0
121.0,29.0,5.0,-8.0,24.0,-22.0,16.0,-69.0
149.0,39.0,30.0,-26.0,36.0,-4.0,45.0,-71.0
139.0,24.0,29.0,-24.0,50.0,15.0,15.0,-75.0
132.0,25.0,26.0,-55.0,45.0,-1.0,8.0,-61.0
133.0,4.0,16.0,-65.0,43.0,-26.0,-1.0,-60.0
15.0,-36.0,8.0,-46.0,26.0,13.0,4.0,-13.0
-21.0,-68.0,3.0,-41.0,36.0,21.0,9.0,9.0
30.0,-56.0,-9.0,-48.0,41.0,4.0,0.0,15.0
98.0,-3.0,-17.0,-40.0,33.0,25.0,-3.0,-5.0
86.0,-30.0,-18.0,-15.0,22.0,35.0,6.0,-25.0
34.0,-50.0,-20.0,-16.0,40.0,27.0,1.0,-53.0
17.0,-32.0,-29.0,-61.0,24.0,6.0,-16.0,-91.0
69.0,-26.0,-45.0,-53.0,1.0,20.0,-25.0,-123.0
110.0,-7.0,-38.0,-34.0,13.0,18.0,-30.0,-122.0
107.0,-18.0,-11.0,-36.0,29.0,0.0,-6.0,-39.0
150.0,20.0,-20.0,-33.0,89.0,13.0,22.0,-28.0
171.0,30.0,3.0,-2.0,97.0,24.0,19.0,-34.0
136.0,-14.0,3.0,15.0,96.0,19.0,38.0,-11.0
92.0,-31.0,-21.0,-30.0,108.0,15.0,34.0,-18.0
89.0,-49.0,18.0,-24.0,103.0,9.0,38.0,-10.0
77.0,-20.0,15.0,-15.0,123.0,6.0,48.0,21.0
55.0,-8.0,-8.0,-1.0,112.0,45.0,31.0,56.0
42.0,-20.0,10.0,2.0,125.0,49.0,29.0,82.0
-23.0,-14.0,23.0,-14.0,98.0,58.0,31.0,94.0
-2.0,36.0,19.0,2.0,76.0,62.0,23.0,83.0
43.0,78.0,1.0,11.0,106.0,70.0,54.0,133.0
12.0,52.0,18.0,3.0,149.0,76.0,62.0,169.0
-14.0,21.0,17.0,-16.0,125.0,64.0,3.0,78.0
-93.0,26.0,12.0,-6.0,119.0,27.0,27.0,56.0
-10.0,43.0,24.0,-2.0,165.0,37.0,44.0,81.0
82.0,45.0,2.0,-15.0,135.0,35.0,28.0,153.0
-58.0,-14.0,-5.0,-18.0,129.0,31.0,39.0,202.0
-280.0,-78.0,-8.0,-7.0,112.0,32.0,19.0,184.0
-214.0,-59.0,-16.0,0.0,89.0,-3.0,10.0,210.0
-61.0,-53.0,-21.0,15.0,76.0,-7.0,16.0,202.0
-151.0,-88.0,-20.0,0.0,82.0,16.0,4.0,204.0
-117.0,-16.0,-28.0,-4.0,55.0,-4.0,-8.0,184.0
-4.0,41.0,-32.0,-9.0,9.0,-36.0,0.0,206.0
51.0,51.0,-4.0,-14.0,56.0,-27.0,4.0,237.0
56.0,51.0,9.0,-5.0,56.0,-46.0,18.0,341.0
62.0,34.0,-14.0,-19.0,84.0,-55.0,34.0,424.0
104.0,48.0,-3.0,2.0,113.0,-43.0,47.0,397.0
97.0,58.0,37.0,22.0,116.0,-37.0,67.0,515.0
53.0,50.0,5.0,11.0,102.0,-24.0,64.0,591.0
-12.0,22.0,-17.0,10.0,71.0,-48.0,61.0,438.0
41.0,9.0,-11.0,-6.0,64.0,-35.0,59.0,292.0
78.0,-27.0,-20.0,-19.0,47.0,-46.0,65.0,198.0
29.0,0.0,-8.0,8.0,43.0,-57.0,49.0,18.0
40.0,80.0,-15.0,6.0,33.0,-22.0,51.0,93.0
89.0,45.0,-17.0,-7.0,72.0,-10.0,53.0,91.0
50.0,58.0,-6.0,4.0,64.0,-14.0,50.0,-202.0
-25.0,57.0,5.0,-30.0,43.0,-26.0,43.0,-23.0
-44.0,12.0,6.0,-7.0,36.0,-12.0,52.0,384.0
27.0,31.0,-12.0,0.0,19.0,-42.0,65.0,357.0
28.0,11.0,-18.0,-34.0,0.0,-54.0,36.0,384.0
-201.0,-95.0,-26.0,-23.0,0.0,-58.0,48.0,434.0
-319.0,-157.0,-22.0,-30.0,15.0,-67.0,38.0,391.0
-196.0,-95.0,-10.0,-22.0,-8.0,-36.0,21.0,438.0
-5.0,-22.0,-5.0,-8.0,3.0,-55.0,40.0,414.0
15.0,-32.0,-14.0,-10.0,-10.0,-79.0,33.0,414.0
-4.0,-21.0,-15.0,-21.0,-54.0,-72.0,16.0,369.0
70.0,39.0,-15.0,-20.0,-82.0,-58.0,-2.0,355.0
-39.0,5.0,20.0,-25.0,-85.0,-43.0,1.0,360.0
-34.0,7.0,21.0,-30.0,-99.0,-39.0,-3.0,344.0
-53.0,3.0,2.0,-50.0,-123.0,-51.0,2.0,321.0
-62.0,-12.0,5.0,-36.0,-118.0,-36.0,5.0,281.0
20.0,12.0,6.0,-51.0,-98.0,-32.0,-10.0,291.0
82.0,40.0,-9.0,-40.0,-111.0,-24.0,-9.0,236.0
126.0,60.0,5.0,-21.0,-95.0,-27.0,-6.0,200.0
137.0,37.0,8.0,-50.0,-73.0,-44.0,-1.0,177.0
243.0,39.0,-33.0,-25.0,-60.0,-50.0,-26.0,190.0
80.0,-11.0,-2.0,-33.0,-19.0,-37.0,-14.0,170.0
114.0,-30.0,-30.0,-36.0,-24.0,-27.0,10.0,148.0
212.0,-57.0,-21.0,-33.0,-13.0,-3.0,7.0,137.0
30.0,-38.0,4.0,-28.0,-11.0,10.0,19.0,95.0
265.0,-7.0,1.0,-21.0,-9.0,7.0,16.0,88.0
668.0,-16.0,3.0,-19.0,5.0,33.0,33.0,71.0
589.0,16.0,11.0,-28.0,3.0,29.0,27.0,51.0
147.0,-11.0,-15.0,-20.0,2.0,31.0,5.0,34.0
-225.0,-12.0,-46.0,-1.0,5.0,-20.0,11.0,15.0
-388.0,26.0,-4.0,-3.0,-7.0,-51.0,21.0,14.0
-280.0,15.0,-6.0,2.0,34.0,-39.0,42.0,-8.0
-245.0,14.0,4.0,-3.0,81.0,-18.0,33.0,-43.0
-441.0,49.0,-12.0,-16.0,86.0,13.0,36.0,-68.0
-535.0,98.0,5.0,-13.0,73.0,44.0,32.0,-76.0
-606.0,134.0,-8.0,0.0,39.0,54.0,16.0,-105.0
-580.0,74.0,-28.0,-20.0,38.0,25.0,12.0,-113.0
-396.0,33.0,-28.0,-11.0,21.0,19.0,21.0,-114.0
-277.0,53.0,-32.0,-19.0,20.0,13.0,40.0,-127.0
-271.0,41.0,-3.0,-11.0,59.0,-29.0,29.0,-105.0
4.0,52.0,-6.0,12.0,77.0,-108.0,32.0,-148.0
241.0,52.0,17.0,13.0,66.0,0.0,27.0,-158.0
249.0,28.0,-16.0,25.0,60.0,102.0,32.0,-216.0
208.0,8.0,15.0,17.0,53.0,93.0,40.0,-297.0
-93.0,-30.0,34.0,-3.0,33.0,113.0,31.0,-262.0
-238.0,-47.0,-8.0,-17.0,48.0,57.0,53.0,-259.0
-426.0,-75.0,-3.0,-12.0,31.0,49.0,22.0,-254.0
-450.0,-70.0,-10.0,-18.0,33.0,41.0,5.0,-248.0
-185.0,-59.0,-33.0,3.0,31.0,57.0,37.0,-259.0
-39.0,-66.0,-28.0,-18.0,33.0,64.0,8.0,-276.0
-172.0,-12.0,7.0,-39.0,58.0,45.0,33.0,-292.0
-305.0,-5.0,13.0,-34.0,40.0,73.0,45.0,-284.0
-39.0,1.0,-5.0,-40.0,32.0,35.0,24.0,-269.0
328.0,49.0,-7.0,-21.0,12.0,92.0,50.0,-268.0
603.0,55.0,27.0,-22.0,1.0,58.0,23.0,-286.0
430.0,40.0,-3.0,-25.0,-18.0,46.0,20.0,-282.0
333.0,46.0,-27.0,-13.0,-45.0,64.0,59.0,-275.0
371.0,28.0,-10.0,-20.0,-38.0,-47.0,38.0,-276.0
339.0,-27.0,-22.0,-16.0,-26.0,97.0,37.0,-267.0
321.0,-55.0,1.0,-21.0,-45.0,168.0,52.0,-232.0
40.0,-149.0,-5.0,-14.0,-75.0,81.0,19.0,-232.0
-24.0,-169.0,-9.0,3.0,-56.0,40.0,10.0,-248.0
56.0,-57.0,14.0,-32.0,-66.0,30.0,33.0,-248.0
63.0,16.0,23.0,-7.0,-103.0,-36.0,24.0,-246.0
-220.0,1.0,0.0,16.0,-93.0,-147.0,16.0,-242.0
-418.0,-46.0,-12.0,10.0,-93.0,-65.0,25.0,-257.0
-280.0,-6.0,-6.0,-6.0,-99.0,113.0,23.0,-226.0
-87.0,38.0,-4.0,-14.0,-89.0,123.0,21.0,-211.0
36.0,20.0,2.0,-8.0,-87.0,171.0,26.0,-212.0
149.0,18.0,-1.0,-22.0,-73.0,195.0,43.0,-209.0
447.0,52.0,-6.0,8.0,-79.0,156.0,34.0,-179.0
553.0,105.0,7.0,-6.0,-81.0,183.0,28.0,-162.0
379.0,89.0,23.0,-23.0,-72.0,123.0,25.0,-228.0
40.0,7.0,-15.0,-7.0,-69.0,139.0,1.0,-222.0
-39.0,-17.0,-20.0,-6.0,-83.0,126.0,10.0,-136.0
161.0,15.0,10.0,-30.0,-70.0,100.0,16.0,-183.0
187.0,-13.0,-15.0,-25.0,-62.0,49.0,22.0,-150.0
201.0,10.0,-30.0,-28.0,-102.0,-6.0,26.0,-1.0
202.0,44.0,-16.0,-23.0,-81.0,-13.0,31.0,112.0
21.0,-4.0,-5.0,4.0,-74.0,-69.0,38.0,153.0
-162.0,10.0,-9.0,-3.0,-50.0,-33.0,23.0,247.0
-234.0,16.0,-5.0,-19.0,-13.0,42.0,21.0,294.0
-119.0,-2.0,-15.0,-2.0,-28.0,61.0,6.0,14.0
-10.0,-33.0,1.0,-5.0,-14.0,66.0,2.0,-166.0
-77.0,20.0,-10.0,-17.0,1.0,78.0,29.0,-362.0
-248.0,75.0,9.0,-17.0,-12.0,102.0,38.0,-620.0
-649.0,8.0,7.0,-7.0,-7.0,118.0,35.0,-553.0
-560.0,-20.0,-23.0,-12.0,7.0,105.0,61.0,-540.0
-215.0,-6.0,10.0,-15.0,-26.0,132.0,23.0,-679.0
-111.0,18.0,5.0,7.0,-34.0,103.0,11.0,-313.0
-50.0,20.0,-11.0,9.0,-13.0,97.0,25.0,39.0
-150.0,12.0,-5.0,-13.0,-17.0,112.0,-12.0,21.0
-94.0,-8.0,3.0,-18.0,3.0,110.0,-17.0,90.0
54.0,-46.0,-9.0,-5.0,24.0,73.0,-18.0,112.0
28.0,-48.0,1.0,-12.0,5.0,18.0,-3.0,112.0
43.0,-40.0,-17.0,-30.0,-12.0,44.0,-15.0,103.0
33.0,-35.0,-27.0,-18.0,11.0,35.0,-16.0,153.0
-123.0,-26.0,-9.0,-6.0,41.0,36.0,12.0,199.0
-22.0,-1.0,-3.0,-39.0,28.0,42.0,-11.0,267.0
145.0,25.0,6.0,-29.0,26.0,41.0,20.0,269.0
216.0,12.0,7.0,-28.0,49.0,40.0,4.0,162.0
334.0,25.0,-1.0,-42.0,47.0,57.0,8.0,282.0
334.0,38.0,-8.0,-16.0,50.0,64.0,39.0,190.0
260.0,38.0,2.0,-23.0,56.0,74.0,28.0,56.0
180.0,38.0,10.0,-8.0,79.0,63.0,65.0,53.0
180.0,52.0,17.0,-1.0,94.0,33.0,62.0,-63.0
120.0,25.0,12.0,-22.0,91.0,50.0,49.0,-195.0
23.0,-53.0,5.0,-10.0,114.0,45.0,38.0,-282.0
-164.0,-69.0,18.0,8.0,114.0,65.0,4.0,47.0
-316.0,-92.0,7.0,2.0,109.0,81.0,30.0,203.0
-244.0,-23.0,10.0,6.0,114.0,19.0,37.0,235.0
-82.0,16.0,-4.0,10.0,99.0,-50.0,-9.0,474.0
-11.0,-15.0,-2.0,-15.0,85.0,-39.0,-3.0,396.0
-16.0,22.0,8.0,-3.0,66.0,18.0,-2.0,303.0
4.0,27.0,-14.0,-16.0,85.0,68.0,-18.0,188.0
16.0,41.0,-27.0,-23.0,76.0,61.0,-19.0,51.0
-24.0,46.0,-40.0,-32.0,61.0,-10.0,14.0,7.0
-81.0,30.0,-48.0,-87.0,65.0,-8.0,33.0,-168.0
-28.0,0.0,-40.0,-68.0,79.0,24.0,18.0,-400.0
42.0,-18.0,-32.0,-78.0,111.0,14.0,46.0,-357.0
36.0,-11.0,-38.0,-96.0,93.0,6.0,37.0,90.0
21.0,3.0,-31.0,-67.0,89.0,36.0,-6.0,261.0
15.0,20.0,-13.0,-75.0,77.0,90.0,29.0,224.0
0.0,11.0,1.0,-65.0,90.0,30.0,38.0,425.0
-31.0,36.0,6.0,-28.0,90.0,9.0,27.0,324.0
-31.0,34.0,0.0,-35.0,61.0,29.0,24.0,227.0
-13.0,12.0,13.0,-23.0,48.0,-2.0,19.0,184.0
-52.0,1.0,33.0,15.0,32.0,-66.0,35.0,123.0
-61.0,-14.0,26.0,12.0,60.0,-101.0,29.0,261.0
-3.0,-18.0,1.0,38.0,78.0,-20.0,28.0,222.0
-8.0,8.0,-3.0,26.0,46.0,4.0,15.0,229.0
-37.0,31.0,9.0,19.0,48.0,0.0,7.0,210.0
-31.0,31.0,6.0,9.0,43.0,20.0,13.0,194.0
-19.0,23.0,27.0,3.0,-2.0,14.0,18.0,217.0
-35.0,-8.0,9.0,33.0,3.0,44.0,30.0,207.0
-49.0,-19.0,-4.0,23.0,17.0,37.0,53.0,230.0
-24.0,40.0,25.0,38.0,7.0,13.0,56.0,220.0
39.0,65.0,22.0,56.0,8.0,-1.0,27.0,239.0
48.0,47.0,9.0,38.0,21.0,7.0,34.0,236.0
89.0,47.0,8.0,25.0,45.0,-6.0,27.0,252.0
78.0,-7.0,3.0,24.0,50.0,1.0,25.0,224.0
15.0,1.0,9.0,-33.0,42.0,33.0,29.0,249.0
-27.0,-13.0,-16.0,-59.0,43.0,8.0,17.0,247.0
-71.0,-13.0,-5.0,-54.0,18.0,-33.0,25.0,219.0
-67.0,-3.0,-3.0,-50.0,17.0,-62.0,16.0,212.0
-66.0,1.0,-32.0,-44.0,23.0,-46.0,2.0,239.0
-35.0,-11.0,-20.0,-62.0,21.0,-42.0,5.0,276.0
-42.0,-45.0,-22.0,-49.0,20.0,-34.0,0.0,228.0
-44.0,-1.0,-35.0,-24.0,6.0,21.0,0.0,241.0
-43.0,-16.0,-28.0,-19.0,34.0,56.0,-6.0,228.0
-25.0,-16.0,-32.0,-22.0,50.0,57.0,7.0,213.0
0.0,0.0,-39.0,-25.0,56.0,9.0,12.0,206.0
-62.0,27.0,-42.0,-51.0,74.0,-46.0,3.0,174.0
-64.0,-12.0,-59.0,-45.0,54.0,-173.0,-10.0,264.0
-90.0,-51.0,-36.0,-50.0,80.0,-280.0,5.0,409.0
-101.0,-3.0,-12.0,-40.0,81.0,-123.0,41.0,394.0
-47.0,-11.0,-3.0,-42.0,78.0,21.0,25.0,361.0
-27.0,-15.0,-14.0,-56.0,82.0,-3.0,16.0,387.0
2.0,-8.0,-5.0,-9.0,68.0,20.0,13.0,282.0
-11.0,-20.0,48.0,5.0,49.0,77.0,37.0,142.0
-41.0,0.0,20.0,12.0,22.0,64.0,54.0,3.0
-17.0,34.0,24.0,22.0,44.0,31.0,65.0,-158.0
20.0,-2.0,20.0,55.0,33.0,6.0,69.0,-104.0
-9.0,27.0,8.0,51.0,64.0,-35.0,47.0,78.0
-25.0,20.0,11.0,30.0,66.0,-91.0,51.0,28.0
-8.0,2.0,-1.0,22.0,38.0,-48.0,38.0,17.0
-2.0,33.0,19.0,-6.0,82.0,95.0,16.0,202.0
14.0,-2.0,3.0,38.0,65.0,126.0,37.0,246.0
17.0,20.0,2.0,19.0,85.0,105.0,20.0,203.0
8.0,7.0,0.0,0.0,66.0,68.0,7.0,164.0
-11.0,34.0,-17.0,17.0,58.0,42.0,27.0,112.0
-8.0,14.0,-17.0,-34.0,72.0,13.0,29.0,52.0
36.0,-29.0,-30.0,-36.0,88.0,-42.0,32.0,22.0
17.0,-6.0,-28.0,2.0,87.0,-92.0,42.0,92.0
21.0,-28.0,-12.0,-20.0,78.0,-89.0,32.0,75.0
23.0,-31.0,1.0,-30.0,45.0,-86.0,45.0,76.0
3.0,12.0,-10.0,-21.0,44.0,-104.0,42.0,100.0
-14.0,24.0,-23.0,-9.0,54.0,-6.0,14.0,87.0
-30.0,28.0,-11.0,-1.0,46.0,30.0,22.0,90.0
-31.0,34.0,-2.0,-24.0,45.0,1.0,11.0,53.0
-39.0,-15.0,-1.0,-16.0,56.0,33.0,45.0,53.0
20.0,-40.0,3.0,-16.0,70.0,31.0,50.0,7.0
-4.0,-26.0,-13.0,-16.0,42.0,8.0,41.0,-27.0
-19.0,-11.0,-1.0,1.0,50.0,4.0,46.0,-81.0
23.0,27.0,0.0,-26.0,41.0,14.0,39.0,-104.0
27.0,34.0,-40.0,-32.0,53.0,27.0,32.0,-42.0
20.0,37.0,-8.0,-36.0,62.0,15.0,11.0,-66.0
-24.0,33.0,4.0,-25.0,49.0,-9.0,13.0,-62.0
-19.0,-5.0,1.0,-49.0,82.0,29.0,9.0,-52.0
5.0,13.0,2.0,-22.0,89.0,20.0,32.0,-108.0
9.0,-2.0,-1.0,-8.0,105.0,54.0,21.0,-149.0
5.0,-52.0,24.0,-62.0,93.0,109.0,10.0,-170.0
-1.0,-26.0,-3.0,1.0,99.0,119.0,37.0,-215.0
-21.0,-3.0,3.0,-13.0,85.0,81.0,16.0,-254.0
-26.0,4.0,7.0,-63.0,45.0,57.0,45.0,-259.0
-43.0,66.0,-18.0,-32.0,28.0,15.0,23.0,-232.0
-9.0,18.0,-16.0,-12.0,23.0,-24.0,4.0,-79.0
47.0,-40.0,4.0,-21.0,70.0,70.0,34.0,19.0
52.0,-20.0,14.0,-29.0,82.0,91.0,28.0,-100.0
54.0,-33.0,-12.0,-20.0,60.0,86.0,56.0,-76.0
43.0,14.0,12.0,-21.0,53.0,70.0,45.0,12.0
28.0,21.0,19.0,-10.0,49.0,-36.0,48.0,-70.0
-48.0,43.0,13.0,-23.0,28.0,-224.0,41.0,-80.0
-92.0,15.0,-9.0,-4.0,3.0,-234.0,32.0,-305.0
-38.0,-2.0,-24.0,-21.0,-23.0,-47.0,33.0,-748.0
-6.0,45.0,-10.0,-24.0,-6.0,26.0,17.0,-683.0
1.0,-32.0,-25.0,-24.0,-27.0,79.0,9.0,-549.0
28.0,-77.0,-5.0,-9.0,-53.0,32.0,1.0,-853.0
41.0,-68.0,-28.0,10.0,-37.0,102.0,5.0,-1126.0
-43.0,-7.0,-21.0,-1.0,-36.0,213.0,-11.0,-992.0
-92.0,22.0,-20.0,-2.0,-22.0,82.0,18.0,-687.0
-103.0,-9.0,-14.0,-7.0,-25.0,12.0,26.0,-427.0
-114.0,27.0,-3.0,19.0,-37.0,62.0,24.0,-240.0
-81.0,57.0,-18.0,6.0,-26.0,67.0,-2.0,-315.0
-52.0,5.0,0.0,-7.0,-23.0,49.0,-25.0,-278.0
-55.0,-32.0,-9.0,-19.0,-27.0,84.0,17.0,-353.0
-42.0,-63.0,5.0,-26.0,-46.0,34.0,19.0,-305.0
-8.0,-88.0,12.0,-33.0,-61.0,79.0,-2.0,-196.0
-29.0,-25.0,-16.0,-50.0,-41.0,90.0,27.0,-274.0
15.0,-10.0,-39.0,-36.0,-25.0,101.0,26.0,-183.0
24.0,-15.0,7.0,-24.0,-22.0,93.0,23.0,-207.0
-26.0,28.0,8.0,-18.0,-34.0,47.0,45.0,-206.0
-35.0,65.0,-25.0,-16.0,7.0,70.0,37.0,-189.0
-40.0,79.0,-28.0,-30.0,2.0,26.0,42.0,-175.0
5.0,53.0,-11.0,-16.0,-18.0,83.0,41.0,-170.0
7.0,27.0,0.0,-6.0,-22.0,98.0,30.0,-170.0
-4.0,12.0,-1.0,-46.0,-34.0,68.0,15.0,-109.0
-9.0,30.0,-3.0,-40.0,-5.0,84.0,28.0,-120.0
-46.0,34.0,-36.0,-19.0,-22.0,96.0,9.0,-114.0
-42.0,41.0,-27.0,-7.0,-30.0,77.0,4.0,-74.0
-27.0,36.0,-10.0,-29.0,-36.0,40.0,15.0,-73.0
-17.0,-23.0,-29.0,-24.0,-44.0,29.0,16.0,-81.0
12.0,-43.0,-19.0,10.0,-52.0,30.0,28.0,-89.0
42.0,-13.0,-3.0,-9.0,-81.0,26.0,25.0,-59.0
13.0,-2.0,-24.0,-13.0,-79.0,29.0,45.0,-3.0
-13.0,20.0,-24.0,-21.0,-51.0,20.0,42.0,22.0
27.0,2.0,-10.0,-19.0,-27.0,-25.0,48.0,69.0
26.0,4.0,-2.0,14.0,-33.0,1.0,38.0,98.0
29.0,15.0,2.0,10.0,-19.0,35.0,33.0,117.0
17.0,34.0,-18.0,22.0,-11.0,54.0,42.0,125.0
-3.0,65.0,-20.0,15.0,-30.0,45.0,44.0,116.0
-33.0,11.0,-42.0,8.0,-29.0,20.0,30.0,129.0
-15.0,-19.0,-54.0,25.0,-16.0,38.0,27.0,130.0
18.0,-40.0,-55.0,31.0,-16.0,25.0,23.0,125.0
17.0,-50.0,-47.0,39.0,-3.0,16.0,29.0,112.0
0.0,-19.0,-34.0,13.0,-4.0,10.0,61.0,100.0
1.0,-32.0,-33.0,18.0,4.0,15.0,31.0,106.0
-11.0,-21.0,-11.0,26.0,-26.0,13.0,22.0,95.0
7.0,-8.0,-17.0,16.0,-90.0,-15.0,9.0,100.0
38.0,9.0,-15.0,22.0,-77.0,0.0,18.0,100.0
13.0,6.0,3.0,20.0,-49.0,34.0,42.0,90.0
50.0,-6.0,-1.0,19.0,-15.0,49.0,31.0,97.0
37.0,16.0,14.0,12.0,-3.0,46.0,28.0,87.0
40.0,-3.0,21.0,2.0,-3.0,39.0,2.0,88.0
25.0,-18.0,26.0,-14.0,7.0,26.0,2.0,90.0
-17.0,-19.0,31.0,-28.0,-3.0,24.0,-6.0,89.0
3.0,4.0,15.0,-13.0,25.0,-3.0,-16.0,122.0
11.0,22.0,18.0,4.0,12.0,-19.0,-39.0,190.0
37.0,-24.0,53.0,-6.0,19.0,8.0,2.0,174.0
33.0,-34.0,54.0,-12.0,3.0,12.0,37.0,95.0
27.0,-45.0,60.0,-28.0,4.0,8.0,11.0,92.0
7.0,-51.0,55.0,-18.0,8.0,10.0,32.0,39.0
-19.0,-31.0,76.0,-44.0,-26.0,17.0,38.0,18.0
-39.0,-10.0,77.0,-83.0,-17.0,57.0,23.0,30.0
-66.0,3.0,76.0,-80.0,-34.0,67.0,23.0,-11.0
-75.0,13.0,85.0,-120.0,-21.0,44.0,15.0,-41.0
-63.0,33.0,85.0,-137.0,-65.0,37.0,14.0,27.0
-44.0,55.0,101.0,-140.0,-72.0,32.0,8.0,137.0
-50.0,89.0,79.0,-147.0,-51.0,14.0,4.0,190.0
-32.0,93.0,83.0,-156.0,-27.0,39.0,4.0,241.0
58.0,43.0,80.0,-130.0,-27.0,31.0,-3.0,230.0
119.0,30.0,64.0,-99.0,-31.0,23.0,-3.0,249.0
101.0,-10.0,64.0,-116.0,22.0,22.0,6.0,225.0
98.0,-82.0,52.0,-92.0,0.0,-3.0,29.0,213.0
-6.0,-29.0,51.0,-93.0,32.0,10.0,16.0,266.0
-96.0,-31.0,50.0,-83.0,44.0,3.0,30.0,264.0
-123.0,-44.0,13.0,-41.0,44.0,17.0,45.0,276.0
-151.0,-42.0,-30.0,-29.0,35.0,19.0,39.0,285.0
-132.0,-45.0,-42.0,12.0,16.0,44.0,42.0,296.0
-111.0,-11.0,-61.0,25.0,4.0,59.0,50.0,300.0
-105.0,-8.0,-72.0,40.0,15.0,48.0,40.0,308.0
-85.0,13.0,-79.0,76.0,58.0,75.0,38.0,320.0
-26.0,34.0,-99.0,44.0,69.0,83.0,30.0,239.0
-1.0,36.0,-99.0,73.0,77.0,79.0,19.0,99.0
0.0,28.0,-98.0,91.0,62.0,84.0,32.0,87.0
-26.0,52.0,-102.0,75.0,86.0,100.0,24.0,140.0
-28.0,73.0,-133.0,84.0,92.0,75.0,1.0,88.0
-68.0,84.0,-140.0,69.0,88.0,97.0,7.0,136.0
-96.0,68.0,-106.0,61.0,112.0,95.0,-3.0,163.0
8.0,39.0,-112.0,68.0,112.0,65.0,-23.0,97.0
30.0,41.0,-109.0,47.0,119.0,61.0,-3.0,90.0
63.0,37.0,-93.0,56.0,119.0,67.0,-23.0,80.0
82.0,3.0,-88.0,67.0,114.0,79.0,-22.0,71.0
27.0,-24.0,-70.0,7.0,123.0,90.0,1.0,70.0
-6.0,-33.0,-76.0,5.0,122.0,91.0,14.0,38.0
-19.0,-21.0,-57.0,20.0,110.0,62.0,5.0,-25.0
-18.0,24.0,-8.0,47.0,123.0,74.0,8.0,-22.0
6.0,52.0,-17.0,38.0,114.0,56.0,21.0,40.0
16.0,43.0,-18.0,-1.0,93.0,44.0,10.0,112.0
-5.0,39.0,-14.0,15.0,88.0,25.0,25.0,108.0
37.0,78.0,-17.0,3.0,85.0,-32.0,6.0,28.0
46.0,86.0,6.0,16.0,88.0,-10.0,17.0,8.0
42.0,49.0,-18.0,3.0,78.0,35.0,31.0,10.0
25.0,15.0,17.0,-17.0,61.0,54.0,0.0,31.0
-75.0,-28.0,23.0,-21.0,47.0,54.0,19.0,-131.0
-78.0,-28.0,14.0,-20.0,35.0,8.0,19.0,-389.0
14.0,10.0,27.0,-27.0,40.0,-49.0,10.0,-382.0
23.0,34.0,-21.0,-25.0,51.0,36.0,29.0,-269.0
1.0,-20.0,8.0,-10.0,37.0,50.0,29.0,-362.0
-7.0,-23.0,14.0,-28.0,44.0,48.0,33.0,-553.0
43.0,17.0,26.0,-21.0,49.0,62.0,25.0,-580.0
202.0,0.0,34.0,-36.0,28.0,83.0,28.0,-179.0
253.0,1.0,28.0,-44.0,20.0,136.0,41.0,214.0
162.0,-11.0,36.0,-36.0,14.0,17.0,28.0,159.0
147.0,-12.0,3.0,-29.0,21.0,-116.0,45.0,157.0
119.0,0.0,20.0,-38.0,30.0,-114.0,44.0,84.0
96.0,-35.0,2.0,-49.0,31.0,-42.0,45.0,-1.0
104.0,-62.0,15.0,-24.0,13.0,-61.0,48.0,-111.0
-4.0,-2.0,7.0,-32.0,3.0,-114.0,44.0,-221.0
-46.0,33.0,17.0,-33.0,4.0,-87.0,48.0,-407.0
-71.0,0.0,18.0,-32.0,8.0,-151.0,39.0,-608.0
-128.0,-1.0,-14.0,-46.0,7.0,-116.0,28.0,-217.0
-163.0,-30.0,-5.0,-63.0,-17.0,53.0,25.0,39.0
-183.0,-12.0,-19.0,-74.0,-11.0,31.0,44.0,49.0
-135.0,10.0,24.0,-55.0,21.0,32.0,28.0,258.0
-142.0,9.0,-12.0,-66.0,26.0,58.0,30.0,290.0
-313.0,-4.0,-7.0,-59.0,16.0,-11.0,5.0,226.0
-292.0,9.0,-7.0,-39.0,12.0,-13.0,-7.0,200.0
-128.0,46.0,-14.0,-49.0,13.0,25.0,36.0,160.0
-98.0,38.0,34.0,-22.0,21.0,88.0,43.0,94.0
-101.0,-11.0,4.0,-13.0,15.0,47.0,66.0,51.0
-172.0,-49.0,9.0,3.0,25.0,-43.0,47.0,-10.0
-209.0,-79.0,-2.0,-2.0,29.0,22.0,19.0,-168.0
-102.0,-88.0,7.0,-20.0,61.0,58.0,13.0,-146.0
135.0,-40.0,0.0,-6.0,52.0,103.0,16.0,146.0
287.0,-16.0,-23.0,-28.0,48.0,134.0,30.0,74.0
447.0,-28.0,-11.0,-9.0,71.0,73.0,25.0,-70.0
725.0,-37.0,14.0,19.0,35.0,73.0,41.0,-5.0
798.0,-19.0,30.0,4.0,9.0,66.0,46.0,-52.0
660.0,-35.0,19.0,-10.0,23.0,83.0,64.0,-101.0
274.0,-69.0,18.0,-4.0,38.0,62.0,43.0,-37.0
-249.0,-19.0,14.0,-8.0,40.0,54.0,47.0,133.0
-475.0,16.0,6.0,-14.0,58.0,86.0,42.0,65.0
-482.0,17.0,-13.0,-12.0,49.0,54.0,3.0,96.0
-569.0,36.0,-26.0,-6.0,74.0,66.0,49.0,106.0
-821.0,28.0,-9.0,-10.0,93.0,56.0,33.0,77.0
-886.0,23.0,2.0,-34.0,75.0,30.0,20.0,128.0
-744.0,40.0,23.0,-12.0,50.0,-10.0,10.0,82.0
-518.0,20.0,33.0,-26.0,30.0,-30.0,23.0,148.0
-148.0,51.0,19.0,-33.0,61.0,13.0,73.0,123.0
72.0,135.0,-2.0,-4.0,37.0,-16.0,37.0,148.0
62.0,136.0,-7.0,-32.0,10.0,10.0,14.0,126.0
-73.0,67.0,-23.0,-36.0,45.0,26.0,4.0,81.0
-256.0,15.0,-33.0,-22.0,16.0,0.0,35.0,63.0
-360.0,4.0,-26.0,-47.0,26.0,21.0,45.0,24.0
-156.0,41.0,-31.0,-31.0,39.0,-24.0,29.0,65.0
37.0,22.0,-21.0,-7.0,53.0,-21.0,39.0,64.0
72.0,-18.0,-17.0,-21.0,50.0,-21.0,24.0,61.0
199.0,-12.0,-6.0,3.0,12.0,-16.0,16.0,120.0
127.0,21.0,11.0,12.0,23.0,4.0,20.0,223.0
154.0,12.0,11.0,20.0,26.0,31.0,21.0,206.0
176.0,-20.0,15.0,18.0,30.0,64.0,16.0,162.0
89.0,-16.0,4.0,-9.0,32.0,18.0,23.0,120.0
93.0,9.0,-7.0,-3.0,17.0,-12.0,34.0,66.0
269.0,48.0,-7.0,-6.0,53.0,-27.0,36.0,58.0
408.0,19.0,18.0,-13.0,92.0,-50.0,35.0,28.0
342.0,15.0,15.0,-25.0,53.0,-27.0,33.0,47.0
306.0,19.0,-9.0,-8.0,42.0,2.0,37.0,46.0
285.0,20.0,-5.0,-21.0,22.0,68.0,38.0,36.0
508.0,10.0,-6.0,-12.0,29.0,132.0,44.0,56.0
745.0,3.0,-5.0,7.0,53.0,98.0,41.0,73.0
570.0,-3.0,-42.0,-15.0,39.0,16.0,44.0,75.0
339.0,-62.0,-17.0,8.0,70.0,1.0,20.0,98.0
144.0,-100.0,1.0,-13.0,56.0,24.0,20.0,122.0
-227.0,-86.0,2.0,-22.0,75.0,21.0,12.0,117.0
-306.0,-55.0,20.0,-14.0,85.0,33.0,2.0,135.0
-301.0,-53.0,-12.0,-5.0,77.0,30.0,-8.0,100.0
-307.0,-31.0,-2.0,-18.0,81.0,57.0,-1.0,87.0
-147.0,-5.0,10.0,-20.0,55.0,19.0,41.0,100.0
-31.0,-4.0,-15.0,-17.0,65.0,-71.0,13.0,65.0
42.0,-6.0,7.0,-45.0,68.0,-93.0,10.0,49.0
47.0,-31.0,-11.0,-10.0,88.0,-65.0,22.0,74.0
-31.0,-72.0,7.0,-19.0,101.0,14.0,-6.0,147.0
-98.0,-59.0,27.0,-24.0,73.0,-4.0,4.0,123.0
-232.0,3.0,-6.0,-1.0,55.0,-89.0,25.0,-50.0
-245.0,16.0,-3.0,-7.0,63.0,-149.0,26.0,-58.0
-75.0,15.0,-16.0,7.0,85.0,-116.0,13.0,-116.0
-96.0,12.0,-16.0,-15.0,66.0,-69.0,15.0,-152.0
13.0,16.0,-2.0,-28.0,63.0,-20.0,-20.0,-154.0
238.0,66.0,-3.0,-44.0,70.0,42.0,9.0,-382.0
333.0,64.0,-30.0,-29.0,85.0,74.0,10.0,-259.0
214.0,65.0,-9.0,3.0,93.0,148.0,10.0,31.0
-18.0,74.0,14.0,1.0,74.0,110.0,38.0,51.0
-169.0,36.0,4.0,11.0,47.0,36.0,-14.0,86.0
-193.0,-31.0,21.0,19.0,29.0,20.0,35.0,112.0
-172.0,-72.0,32.0,8.0,12.0,-25.0,49.0,131.0
-184.0,-98.0,47.0,5.0,23.0,-24.0,16.0,172.0
-74.0,-6.0,24.0,-5.0,2.0,14.0,31.0,165.0
16.0,70.0,5.0,-21.0,-49.0,-24.0,25.0,155.0
13.0,12.0,-26.0,-11.0,-33.0,-10.0,29.0,157.0
49.0,54.0,-51.0,-38.0,-40.0,27.0,29.0,174.0
68.0,39.0,-14.0,-19.0,-50.0,28.0,28.0,300.0
194.0,3.0,-4.0,-9.0,-38.0,5.0,34.0,366.0
185.0,6.0,-32.0,-29.0,-59.0,-16.0,8.0,239.0
-64.0,-16.0,-10.0,-20.0,-54.0,4.0,13.0,206.0
-95.0,7.0,12.0,-51.0,-64.0,-9.0,2.0,198.0
-86.0,53.0,3.0,-14.0,-60.0,-3.0,0.0,302.0
-242.0,25.0,9.0,-12.0,-44.0,44.0,26.0,385.0
-417.0,-36.0,-13.0,-22.0,-62.0,68.0,8.0,9.0
-313.0,-6.0,-36.0,-17.0,-66.0,48.0,30.0,-296.0
-73.0,-36.0,-1.0,-17.0,-75.0,21.0,41.0,-154.0
82.0,1.0,5.0,-5.0,-74.0,14.0,35.0,-134.0
135.0,-18.0,-15.0,-26.0,-49.0,-6.0,29.0,-398.0
17.0,-118.0,-23.0,-34.0,-77.0,-48.0,25.0,-638.0
-185.0,-65.0,-24.0,-36.0,-81.0,-102.0,18.0,-730.0
-85.0,-47.0,-16.0,-23.0,-58.0,-135.0,20.0,-205.0
137.0,-34.0,-30.0,-9.0,-59.0,-118.0,35.0,213.0
119.0,9.0,-27.0,3.0,-40.0,-98.0,13.0,111.0
181.0,53.0,-28.0,-18.0,-47.0,-15.0,32.0,206.0
151.0,70.0,-19.0,-29.0,-29.0,22.0,31.0,210.0
63.0,47.0,-3.0,-28.0,-38.0,-4.0,16.0,230.0
60.0,37.0,-25.0,-54.0,-75.0,24.0,29.0,241.0
-66.0,5.0,-39.0,-67.0,-69.0,-3.0,25.0,308.0
-250.0,-31.0,-26.0,-65.0,-95.0,9.0,37.0,453.0
-253.0,-17.0,-8.0,-32.0,-72.0,54.0,18.0,321.0
-128.0,5.0,-22.0,-19.0,-19.0,30.0,18.0,201.0
-16.0,11.0,-43.0,-42.0,-38.0,-8.0,21.0,162.0
-38.0,65.0,-40.0,-36.0,-1.0,-11.0,5.0,80.0
-79.0,95.0,-21.0,-18.0,12.0,64.0,25.0,23.0
66.0,93.0,-22.0,-20.0,-21.0,70.0,23.0,56.0
127.0,102.0,-24.0,-6.0,-17.0,81.0,19.0,-102.0
133.0,65.0,20.0,-10.0,-37.0,29.0,44.0,-240.0
250.0,15.0,-17.0,-13.0,-43.0,-52.0,35.0,40.0
201.0,-2.0,-32.0,-44.0,-24.0,-35.0,5.0,230.0
-37.0,-36.0,20.0,-9.0,-7.0,-78.0,15.0,137.0
-179.0,-117.0,12.0,2.0,-36.0,-37.0,21.0,182.0
-258.0,-101.0,-3.0,-19.0,-22.0,9.0,22.0,181.0
-92.0,-10.0,-6.0,-12.0,-29.0,-18.0,30.0,190.0
82.0,4.0,8.0,-12.0,-45.0,41.0,11.0,192.0
97.0,-7.0,17.0,23.0,-1.0,35.0,31.0,174.0
198.0,4.0,10.0,20.0,-22.0,-27.0,35.0,206.0
138.0,24.0,1.0,32.0,0.0,-87.0,50.0,190.0
122.0,30.0,-24.0,20.0,-21.0,-14.0,64.0,213.0
155.0,41.0,-24.0,-8.0,-27.0,90.0,43.0,174.0
137.0,49.0,-6.0,12.0,-16.0,51.0,19.0,148.0
93.0,26.0,6.0,-14.0,-68.0,69.0,0.0,151.0
68.0,59.0,2.0,-12.0,-53.0,-2.0,14.0,164.0
69.0,95.0,-15.0,18.0,-47.0,15.0,2.0,117.0
27.0,54.0,-10.0,6.0,-56.0,48.0,7.0,92.0
-11.0,-10.0,-6.0,4.0,-56.0,10.0,16.0,138.0
-102.0,-68.0,-14.0,7.0,-56.0,71.0,14.0,98.0
-109.0,-40.0,0.0,-5.0,-58.0,80.0,13.0,108.0
-151.0,-23.0,-7.0,1.0,-25.0,115.0,6.0,169.0
-224.0,-23.0,21.0,-1.0,-36.0,105.0,3.0,106.0
-132.0,23.0,21.0,2.0,-24.0,58.0,28.0,84.0
-80.0,13.0,-5.0,18.0,-6.0,57.0,15.0,120.0
-15.0,1.0,-14.0,18.0,3.0,55.0,29.0,100.0
35.0,12.0,-13.0,18.0,29.0,28.0,30.0,131.0
30.0,20.0,7.0,-7.0,19.0,12.0,7.0,65.0
92.0,42.0,2.0,-3.0,35.0,127.0,4.0,-3.0
45.0,21.0,20.0,-20.0,50.0,94.0,-7.0,102.0
0.0,-9.0,2.0,-17.0,86.0,67.0,13.0,-4.0
-1.0,-1.0,17.0,-4.0,46.0,97.0,21.0,-142.0
-55.0,-7.0,0.0,-33.0,44.0,50.0,20.0,-42.0
-59.0,-14.0,-6.0,-24.0,81.0,61.0,6.0,-19.0
-80.0,-5.0,1.0,-47.0,79.0,47.0,8.0,-21.0
-58.0,4.0,-2.0,-21.0,92.0,67.0,18.0,-36.0
-52.0,-1.0,1.0,-37.0,76.0,54.0,26.0,-54.0
30.0,-15.0,-31.0,-69.0,64.0,74.0,17.0,-49.0
24.0,-24.0,-1.0,-32.0,63.0,64.0,16.0,-67.0
-20.0,-29.0,21.0,-51.0,41.0,59.0,15.0,-27.0
8.0,-6.0,6.0,-46.0,39.0,61.0,3.0,184.0
4.0,1.0,-30.0,-28.0,64.0,48.0,6.0,491.0
39.0,1.0,-7.0,-35.0,82.0,57.0,-6.0,459.0
-8.0,3.0,-16.0,-36.0,84.0,19.0,8.0,224.0
-92.0,-42.0,-14.0,-30.0,97.0,37.0,0.0,25.0
-108.0,9.0,-32.0,-61.0,59.0,15.0,-6.0,-215.0
-60.0,-8.0,-37.0,-49.0,53.0,23.0,29.0,-431.0
-67.0,-33.0,-8.0,-47.0,56.0,27.0,2.0,-748.0
-93.0,4.0,-39.0,-56.0,51.0,27.0,20.0,-1078.0
-85.0,-12.0,16.0,-8.0,64.0,26.0,20.0,-735.0
-74.0,-6.0,7.0,-1.0,30.0,22.0,0.0,-78.0
-93.0,-10.0,8.0,-8.0,21.0,23.0,16.0,-100.0
-64.0,12.0,24.0,-11.0,28.0,-32.0,17.0,-81.0
27.0,34.0,-7.0,-19.0,48.0,-4.0,42.0,6.0
72.0,46.0,20.0,-16.0,52.0,45.0,40.0,-28.0
61.0,28.0,1.0,-16.0,47.0,48.0,34.0,78.0
35.0,3.0,11.0,7.0,60.0,38.0,28.0,33.0
44.0,-6.0,10.0,2.0,78.0,86.0,61.0,79.0
18.0,-30.0,12.0,32.0,80.0,95.0,66.0,75.0
-1.0,-6.0,9.0,20.0,76.0,42.0,32.0,41.0
16.0,-27.0,-4.0,18.0,64.0,49.0,58.0,43.0
-8.0,-23.0,5.0,22.0,45.0,78.0,36.0,4.0
-18.0,-11.0,8.0,-8.0,84.0,113.0,46.0,37.0
-20.0,-22.0,21.0,4.0,80.0,101.0,25.0,13.0
-33.0,0.0,10.0,-5.0,58.0,75.0,2.0,-5.0
-20.0,-11.0,5.0,-9.0,65.0,89.0,39.0,44.0
-51.0,27.0,24.0,-15.0,100.0,56.0,63.0,157.0
-66.0,41.0,19.0,-12.0,123.0,-2.0,48.0,201.0
-34.0,34.0,-1.0,-21.0,86.0,-17.0,34.0,79.0
-11.0,28.0,-10.0,-34.0,94.0,-39.0,48.0,-6.0
25.0,-42.0,-29.0,16.0,108.0,-28.0,23.0,-101.0
-24.0,-55.0,4.0,-19.0,118.0,-26.0,31.0,-166.0
-60.0,-12.0,-6.0,-46.0,87.0,-7.0,30.0,-248.0
-37.0,-27.0,-38.0,-34.0,56.0,15.0,17.0,-492.0
-17.0,-15.0,-19.0,-34.0,48.0,8.0,12.0,-508.0
31.0,-23.0,-29.0,-24.0,53.0,3.0,35.0,-66.0
33.0,-64.0,4.0,-17.0,58.0,-41.0,37.0,3.0
34.0,-35.0,-24.0,-34.0,44.0,-56.0,33.0,-17.0
30.0,2.0,-40.0,-43.0,68.0,-21.0,61.0,134.0
-21.0,17.0,-28.0,-23.0,64.0,40.0,26.0,32.0
-42.0,37.0,-53.0,-46.0,70.0,90.0,21.0,86.0
-62.0,77.0,-36.0,-46.0,70.0,155.0,36.0,106.0
-13.0,73.0,-54.0,-14.0,89.0,220.0,10.0,168.0
23.0,20.0,-28.0,-28.0,93.0,138.0,36.0,196.0
6.0,-38.0,-11.0,-4.0,62.0,93.0,40.0,125.0
2.0,-69.0,-24.0,-3.0,75.0,-15.0,34.0,95.0
-18.0,-11.0,-12.0,-32.0,74.0,-243.0,25.0,-2.0
5.0,4.0,-20.0,-20.0,66.0,-147.0,35.0,33.0
-8.0,18.0,9.0,0.0,55.0,54.0,52.0,44.0
5.0,40.0,18.0,15.0,43.0,57.0,54.0,-145.0
49.0,31.0,22.0,39.0,46.0,99.0,58.0,-323.0
31.0,38.0,16.0,25.0,63.0,112.0,40.0,-116.0
14.0,58.0,18.0,22.0,68.0,65.0,45.0,-19.0
27.0,102.0,23.0,20.0,90.0,42.0,36.0,-144.0
25.0,68.0,13.0,-10.0,70.0,34.0,32.0,-40.0
47.0,11.0,24.0,2.0,47.0,51.0,19.0,-96.0
60.0,9.0,14.0,0.0,45.0,42.0,1.0,-114.0
23.0,9.0,26.0,-18.0,45.0,26.0,10.0,-279.0
-19.0,-19.0,2.0,-3.0,28.0,36.0,-11.0,-484.0
-47.0,-27.0,-5.0,-10.0,19.0,32.0,2.0,-223.0
-32.0,-72.0,5.0,5.0,59.0,43.0,3.0,-5.0
-54.0,-68.0,2.0,1.0,44.0,10.0,-3.0,-27.0
-58.0,-8.0,0.0,-28.0,14.0,-16.0,15.0,33.0
-35.0,-17.0,-6.0,-3.0,12.0,4.0,-15.0,34.0
-7.0,-3.0,4.0,-28.0,16.0,1.0,15.0,25.0
-17.0,25.0,1.0,-38.0,12.0,24.0,16.0,44.0
12.0,-22.0,-11.0,-15.0,24.0,4.0,8.0,-15.0
30.0,-16.0,-8.0,-44.0,20.0,16.0,19.0,22.0
25.0,5.0,10.0,-49.0,-1.0,33.0,13.0,-17.0
47.0,38.0,9.0,-32.0,-9.0,-2.0,12.0,-23.0
0.0,54.0,-8.0,-37.0,9.0,9.0,3.0,-29.0
-29.0,12.0,6.0,-28.0,18.0,-12.0,4.0,-54.0
-54.0,50.0,-18.0,-37.0,3.0,-24.0,-10.0,-72.0
-53.0,44.0,-25.0,-65.0,11.0,14.0,-11.0,-113.0
-58.0,31.0,1.0,-53.0,13.0,5.0,3.0,-118.0
-32.0,33.0,-18.0,-28.0,37.0,24.0,18.0,-158.0
-14.0,9.0,3.0,-39.0,61.0,39.0,26.0,-163.0
-20.0,-7.0,-5.0,-30.0,48.0,29.0,6.0,-144.0
-8.0,33.0,-4.0,-19.0,60.0,52.0,5.0,-128.0
-21.0,73.0,25.0,-9.0,53.0,43.0,24.0,-166.0
-39.0,55.0,5.0,2.0,44.0,36.0,37.0,-40.0
-31.0,52.0,0.0,2.0,72.0,57.0,56.0,136.0
-5.0,75.0,1.0,9.0,86.0,33.0,37.0,142.0
-90.0,66.0,5.0,2.0,87.0,29.0,19.0,138.0
-123.0,0.0,19.0,-2.0,78.0,42.0,27.0,123.0
-81.0,-44.0,12.0,7.0,62.0,2.0,40.0,18.0
-39.0,-91.0,-18.0,-10.0,66.0,-1.0,42.0,-226.0
-4.0,-55.0,-15.0,-20.0,99.0,15.0,21.0,-330.0
-14.0,-26.0,-14.0,-15.0,78.0,19.0,20.0,-327.0
28.0,-15.0,0.0,-24.0,80.0,37.0,24.0,-295.0
27.0,36.0,-26.0,-14.0,89.0,23.0,17.0,-344.0
50.0,6.0,-7.0,-6.0,69.0,17.0,19.0,-529.0
39.0,-19.0,10.0,-16.0,42.0,15.0,25.0,-675.0
-52.0,-17.0,-26.0,-13.0,4.0,10.0,39.0,-353.0
-104.0,-7.0,-17.0,-11.0,-27.0,25.0,28.0,-248.0
-62.0,-54.0,-22.0,-3.0,-13.0,20.0,16.0,-553.0
-9.0,-79.0,-35.0,-14.0,-4.0,36.0,18.0,-260.0
5.0,-52.0,-15.0,-17.0,-4.0,36.0,20.0,69.0
33.0,-47.0,-6.0,-6.0,25.0,2.0,9.0,131.0
3.0,-18.0,-7.0,-28.0,29.0,34.0,19.0,138.0
-48.0,-16.0,2.0,-13.0,11.0,49.0,16.0,136.0
-53.0,-1.0,-20.0,-13.0,30.0,37.0,31.0,79.0
-32.0,-8.0,-10.0,-30.0,33.0,62.0,71.0,1.0
-17.0,7.0,18.0,-5.0,37.0,37.0,28.0,14.0
-25.0,38.0,17.0,2.0,15.0,30.0,8.0,42.0
-47.0,10.0,1.0,-19.0,-8.0,73.0,-12.0,-91.0
-40.0,4.0,0.0,-10.0,28.0,45.0,8.0,-48.0
-11.0,40.0,-15.0,4.0,25.0,7.0,18.0,319.0
-20.0,66.0,2.0,-11.0,7.0,11.0,23.0,341.0
21.0,73.0,4.0,-12.0,4.0,-1.0,39.0,261.0
50.0,55.0,-25.0,-6.0,-10.0,5.0,19.0,177.0
46.0,43.0,-10.0,9.0,6.0,0.0,20.0,135.0
42.0,43.0,0.0,-9.0,9.0,14.0,12.0,-9.0
37.0,33.0,1.0,-9.0,-42.0,21.0,21.0,-401.0
52.0,19.0,-8.0,-2.0,-36.0,6.0,20.0,-156.0
25.0,-39.0,-15.0,-15.0,-66.0,-6.0,40.0,243.0
-40.0,-46.0,-26.0,-11.0,-85.0,-17.0,37.0,230.0
-78.0,-42.0,-13.0,-11.0,-35.0,12.0,17.0,283.0
-39.0,-37.0,-9.0,-12.0,-46.0,10.0,41.0,274.0
4.0,-8.0,-21.0,-18.0,-27.0,5.0,34.0,275.0
-13.0,-40.0,-6.0,-21.0,-28.0,19.0,53.0,304.0
-18.0,-50.0,-35.0,-2.0,-27.0,27.0,31.0,267.0
-29.0,-57.0,-23.0,7.0,-26.0,15.0,32.0,304.0
-10.0,-5.0,-20.0,-21.0,-31.0,-3.0,51.0,304.0
20.0,76.0,-26.0,-9.0,9.0,20.0,52.0,262.0
36.0,93.0,-2.0,13.0,-2.0,44.0,62.0,168.0
80.0,74.0,5.0,-25.0,-16.0,35.0,36.0,155.0
66.0,19.0,10.0,7.0,-12.0,28.0,55.0,147.0
90.0,24.0,-1.0,19.0,-29.0,37.0,59.0,160.0
92.0,9.0,14.0,15.0,-44.0,17.0,68.0,144.0
33.0,-36.0,6.0,15.0,-67.0,23.0,47.0,125.0
8.0,-49.0,5.0,-16.0,-95.0,13.0,44.0,239.0
1.0,-40.0,6.0,-33.0,-91.0,25.0,42.0,326.0
25.0,-47.0,-7.0,-28.0,-108.0,32.0,17.0,513.0
-71.0,-84.0,-3.0,-30.0,-111.0,7.0,42.0,434.0
-110.0,-58.0,-2.0,-14.0,-116.0,-1.0,20.0,236.0
-90.0,-17.0,10.0,-10.0,-162.0,9.0,26.0,51.0
-12.0,0.0,-5.0,-21.0,-145.0,24.0,42.0,-305.0
52.0,12.0,1.0,-3.0,-138.0,21.0,10.0,-622.0
15.0,29.0,-6.0,-8.0,-116.0,53.0,10.0,-914.0
23.0,12.0,-21.0,-15.0,-71.0,61.0,25.0,-1170.0
-12.0,0.0,-10.0,8.0,-91.0,33.0,24.0,-904.0
-17.0,24.0,-14.0,-2.0,-75.0,42.0,51.0,-136.0
-59.0,-17.0,3.0,-14.0,-39.0,36.0,32.0,-93.0
-156.0,-2.0,-2.0,-3.0,-37.0,62.0,24.0,-93.0
-113.0,12.0,0.0,-6.0,-60.0,67.0,37.0,4.0
82.0,5.0,5.0,-27.0,-32.0,37.0,4.0,-42.0
155.0,22.0,-21.0,-16.0,-1.0,46.0,3.0,130.0
74.0,5.0,6.0,-14.0,-4.0,37.0,27.0,25.0
31.0,-32.0,-12.0,-39.0,25.0,47.0,12.0,218.0
108.0,-52.0,-30.0,-44.0,31.0,45.0,4.0,258.0
247.0,-10.0,-24.0,-66.0,20.0,31.0,22.0,178.0
353.0,16.0,-46.0,-81.0,39.0,53.0,12.0,222.0
298.0,25.0,-27.0,-76.0,70.0,56.0,-23.0,119.0
114.0,-5.0,-35.0,-76.0,53.0,45.0,-20.0,55.0
-88.0,-26.0,-29.0,-62.0,40.0,30.0,-23.0,54.0
-314.0,-22.0,-29.0,-41.0,52.0,62.0,-4.0,253.0
-140.0,-23.0,-30.0,-39.0,50.0,64.0,-15.0,220.0
262.0,-8.0,-21.0,-39.0,56.0,56.0,-18.0,-71.0
260.0,-19.0,-37.0,-39.0,53.0,51.0,-14.0,171.0
42.0,0.0,-25.0,-14.0,64.0,57.0,-1.0,434.0
-108.0,8.0,6.0,2.0,45.0,102.0,14.0,77.0
-125.0,24.0,18.0,-22.0,31.0,53.0,5.0,-70.0
-72.0,21.0,17.0,-16.0,40.0,35.0,1.0,-562.0
-102.0,43.0,25.0,-23.0,46.0,4.0,-2.0,-1130.0
-144.0,41.0,15.0,-35.0,34.0,-16.0,16.0,-776.0
-150.0,30.0,3.0,-25.0,49.0,10.0,22.0,-528.0
-226.0,60.0,-2.0,-9.0,36.0,13.0,25.0,-457.0
-453.0,40.0,-17.0,6.0,21.0,19.0,51.0,190.0
-645.0,38.0,-7.0,2.0,40.0,25.0,51.0,731.0
-481.0,47.0,2.0,-5.0,-4.0,44.0,53.0,1006.0
-258.0,69.0,-29.0,-28.0,31.0,37.0,33.0,1077.0
-10.0,70.0,-30.0,-10.0,47.0,58.0,22.0,786.0
11.0,18.0,-32.0,-1.0,20.0,42.0,28.0,465.0
-156.0,-18.0,-24.0,-14.0,22.0,34.0,34.0,142.0
-136.0,5.0,-17.0,-4.0,17.0,40.0,34.0,-186.0
21.0,22.0,-3.0,-24.0,48.0,32.0,24.0,-931.0
314.0,17.0,12.0,-24.0,38.0,28.0,58.0,-1391.0
222.0,4.0,33.0,11.0,29.0,40.0,20.0,-843.0
293.0,-15.0,36.0,16.0,49.0,54.0,19.0,-417.0
373.0,-36.0,12.0,-9.0,65.0,19.0,67.0,-105.0
69.0,-27.0,19.0,-16.0,65.0,10.0,30.0,360.0
-323.0,-1.0,18.0,11.0,58.0,-3.0,30.0,202.0
-445.0,5.0,9.0,19.0,55.0,-23.0,50.0,279.0
-321.0,20.0,12.0,6.0,89.0,-23.0,27.0,290.0
-266.0,41.0,30.0,6.0,96.0,-13.0,29.0,255.0
-288.0,34.0,16.0,-20.0,88.0,-25.0,30.0,349.0
-610.0,36.0,-11.0,2.0,61.0,-37.0,20.0,330.0
-942.0,57.0,8.0,20.0,49.0,-37.0,17.0,654.0
-974.0,55.0,0.0,12.0,80.0,-39.0,31.0,645.0
-379.0,74.0,10.0,37.0,74.0,-39.0,30.0,499.0
235.0,63.0,21.0,22.0,55.0,-37.0,28.0,377.0
448.0,73.0,12.0,9.0,70.0,-23.0,22.0,142.0
603.0,78.0,14.0,10.0,101.0,-32.0,12.0,-10.0
618.0,14.0,3.0,2.0,82.0,-26.0,12.0,-265.0
503.0,-22.0,21.0,-13.0,91.0,-12.0,33.0,-730.0
424.0,-38.0,24.0,-9.0,98.0,-37.0,59.0,-457.0
543.0,-15.0,31.0,-5.0,103.0,-20.0,37.0,190.0
640.0,-22.0,7.0,-28.0,125.0,5.0,32.0,119.0
521.0,-44.0,-8.0,1.0,122.0,8.0,22.0,200.0
438.0,-27.0,13.0,-1.0,114.0,67.0,24.0,237.0
277.0,-56.0,-6.0,-22.0,114.0,81.0,43.0,247.0
150.0,-42.0,4.0,-20.0,114.0,24.0,43.0,391.0
-111.0,-42.0,-14.0,-12.0,122.0,26.0,37.0,455.0
-497.0,-28.0,-20.0,4.0,126.0,8.0,17.0,765.0
-392.0,-18.0,-9.0,-13.0,123.0,4.0,7.0,1085.0
-367.0,-46.0,-27.0,-30.0,147.0,14.0,-8.0,1307.0
-345.0,-30.0,-24.0,-48.0,129.0,32.0,27.0,1130.0
-339.0,-16.0,-24.0,-48.0,118.0,56.0,45.0,612.0
-197.0,24.0,-21.0,-46.0,111.0,50.0,29.0,-2.0
90.0,64.0,-22.0,-55.0,108.0,65.0,50.0,-614.0
263.0,16.0,-7.0,-45.0,114.0,53.0,31.0,-1339.0
583.0,-4.0,-10.0,-17.0,82.0,36.0,-4.0,-1534.0
751.0,55.0,-18.0,-19.0,50.0,29.0,-16.0,-1115.0
651.0,21.0,-29.0,-12.0,34.0,4.0,-8.0,-692.0
395.0,-12.0,-7.0,-24.0,36.0,5.0,-2.0,-313.0
93.0,-34.0,-3.0,-38.0,52.0,10.0,7.0,-47.0
-221.0,-23.0,-32.0,-45.0,61.0,11.0,-17.0,209.0
-296.0,-5.0,-5.0,-41.0,45.0,14.0,0.0,422.0
-368.0,-16.0,-13.0,-24.0,16.0,24.0,25.0,319.0
-435.0,23.0,-17.0,-36.0,-1.0,39.0,-3.0,46.0
-427.0,13.0,-9.0,-22.0,-20.0,34.0,31.0,438.0
-360.0,-29.0,-28.0,7.0,-34.0,9.0,36.0,522.0
-180.0,-53.0,-17.0,3.0,-10.0,5.0,7.0,160.0
-155.0,-33.0,17.0,-3.0,-21.0,9.0,19.0,344.0
-132.0,-9.0,2.0,4.0,-34.0,2.0,18.0,165.0
-74.0,-4.0,-2.0,-3.0,-31.0,-9.0,-8.0,-234.0
-73.0,6.0,-26.0,13.0,-20.0,-11.0,-1.0,-117.0
-127.0,27.0,-39.0,-5.0,40.0,13.0,25.0,538.0
-7.0,45.0,-4.0,-16.0,14.0,34.0,15.0,503.0
79.0,34.0,-9.0,4.0,30.0,5.0,1.0,409.0
122.0,-30.0,-3.0,23.0,19.0,20.0,19.0,556.0
169.0,-44.0,4.0,6.0,-19.0,12.0,9.0,355.0
119.0,-33.0,-3.0,2.0,17.0,-2.0,12.0,448.0
127.0,-64.0,-33.0,5.0,20.0,10.0,13.0,322.0
134.0,-20.0,-12.0,-10.0,23.0,2.0,10.0,369.0
243.0,0.0,17.0,-25.0,31.0,16.0,32.0,352.0
458.0,-24.0,-12.0,-44.0,68.0,14.0,37.0,322.0
790.0,22.0,0.0,-9.0,28.0,27.0,39.0,328.0
1297.0,43.0,-12.0,-10.0,-12.0,10.0,21.0,261.0
1365.0,25.0,-13.0,-14.0,17.0,1.0,46.0,304.0
778.0,24.0,11.0,8.0,13.0,17.0,64.0,261.0
406.0,28.0,27.0,4.0,36.0,15.0,36.0,276.0
-155.0,-5.0,-3.0,3.0,41.0,43.0,59.0,236.0
-675.0,-36.0,-13.0,-16.0,62.0,36.0,44.0,243.0
-744.0,-32.0,-17.0,-23.0,71.0,37.0,20.0,230.0
-941.0,-41.0,-9.0,15.0,30.0,44.0,40.0,261.0
-1039.0,-75.0,2.0,-6.0,34.0,28.0,41.0,196.0
-870.0,-31.0,11.0,-42.0,29.0,45.0,41.0,128.0
-541.0,11.0,19.0,-10.0,21.0,45.0,42.0,148.0
-566.0,-20.0,0.0,-28.0,9.0,29.0,40.0,145.0
-457.0,2.0,-6.0,-64.0,18.0,15.0,53.0,129.0
-541.0,12.0,-43.0,-76.0,16.0,17.0,48.0,97.0
-775.0,34.0,-6.0,-42.0,-12.0,28.0,17.0,108.0
-641.0,87.0,14.0,-32.0,-1.0,16.0,16.0,55.0
-302.0,93.0,9.0,-45.0,-36.0,5.0,19.0,41.0
60.0,82.0,8.0,-41.0,-46.0,-2.0,19.0,62.0
382.0,62.0,-11.0,-64.0,-23.0,2.0,19.0,187.0
692.0,47.0,-17.0,-48.0,-21.0,-8.0,29.0,377.0
618.0,19.0,4.0,-37.0,-17.0,-7.0,34.0,308.0
477.0,9.0,-15.0,-8.0,-2.0,-16.0,34.0,132.0
196.0,25.0,-46.0,6.0,-3.0,-48.0,8.0,-18.0
-74.0,44.0,-11.0,-9.0,-29.0,-51.0,-21.0,-189.0
-82.0,47.0,-20.0,-36.0,-33.0,-57.0,-10.0,-366.0
-76.0,35.0,-10.0,-47.0,7.0,-75.0,2.0,-759.0
12.0,64.0,-6.0,-21.0,26.0,-81.0,-2.0,-861.0
77.0,46.0,-41.0,5.0,39.0,-42.0,17.0,-153.0
88.0,-5.0,-9.0,16.0,41.0,-27.0,27.0,296.0
43.0,-14.0,-18.0,8.0,48.0,-13.0,9.0,156.0
29.0,-70.0,-2.0,-3.0,49.0,-4.0,22.0,312.0
-68.0,-99.0,6.0,-10.0,22.0,2.0,16.0,230.0
-142.0,-76.0,-9.0,16.0,34.0,7.0,9.0,-218.0
-128.0,-46.0,26.0,15.0,35.0,13.0,43.0,-496.0
-88.0,17.0,6.0,34.0,36.0,37.0,54.0,-791.0
50.0,29.0,3.0,34.0,32.0,45.0,31.0,-797.0
134.0,-10.0,-3.0,11.0,13.0,39.0,33.0,-638.0
146.0,9.0,-2.0,20.0,21.0,34.0,36.0,-602.0
166.0,12.0,-14.0,-14.0,22.0,25.0,26.0,-181.0
194.0,11.0,-2.0,-9.0,5.0,9.0,34.0,98.0
129.0,1.0,8.0,-21.0,5.0,8.0,40.0,-6.0
81.0,-33.0,-10.0,-72.0,6.0,25.0,27.0,55.0
73.0,-44.0,12.0,-66.0,-1.0,43.0,17.0,-80.0
53.0,-40.0,-15.0,-52.0,-38.0,38.0,16.0,-25.0
62.0,12.0,-6.0,-35.0,-32.0,32.0,19.0,-64.0
56.0,46.0,19.0,-20.0,5.0,35.0,39.0,-121.0
49.0,58.0,9.0,-11.0,-1.0,59.0,43.0,-77.0
52.0,78.0,16.0,-26.0,-20.0,61.0,34.0,-144.0
43.0,74.0,23.0,-27.0,-24.0,43.0,40.0,-95.0
54.0,47.0,-3.0,-21.0,-28.0,73.0,64.0,-126.0
68.0,4.0,-3.0,6.0,-29.0,48.0,48.0,-109.0
35.0,2.0,6.0,15.0,-33.0,39.0,15.0,-129.0
10.0,18.0,5.0,-27.0,-38.0,48.0,5.0,-146.0
32.0,-24.0,-13.0,-22.0,-8.0,19.0,-16.0,-175.0
96.0,-31.0,-26.0,-17.0,-31.0,4.0,-18.0,-196.0
68.0,-29.0,-41.0,1.0,-46.0,-14.0,4.0,-210.0
4.0,-78.0,-44.0,2.0,-24.0,-6.0,8.0,-266.0
-9.0,-77.0,-22.0,-3.0,-2.0,14.0,-3.0,-240.0
-39.0,-45.0,-14.0,0.0,7.0,2.0,-3.0,-193.0
-100.0,-73.0,-11.0,-13.0,-30.0,0.0,-15.0,-104.0
-119.0,-72.0,-21.0,6.0,-33.0,-20.0,-5.0,-116.0
-123.0,5.0,-29.0,-9.0,-19.0,-2.0,18.0,-67.0
-160.0,40.0,-6.0,-8.0,-41.0,28.0,10.0,-23.0
-114.0,68.0,-6.0,-6.0,-67.0,6.0,10.0,-100.0
-96.0,35.0,0.0,-26.0,-25.0,0.0,25.0,-19.0
-66.0,24.0,-4.0,2.0,-8.0,9.0,29.0,-109.0
44.0,49.0,-28.0,12.0,-24.0,7.0,53.0,-85.0
82.0,22.0,-29.0,3.0,-16.0,-21.0,64.0,147.0
163.0,53.0,-17.0,-10.0,6.0,-11.0,48.0,-39.0
139.0,30.0,28.0,-12.0,27.0,30.0,46.0,190.0
42.0,-8.0,31.0,-10.0,22.0,21.0,44.0,224.0
50.0,22.0,23.0,-28.0,0.0,31.0,17.0,-81.0
3.0,38.0,15.0,-25.0,-9.0,0.0,44.0,-7.0
-44.0,33.0,-23.0,-30.0,1.0,-7.0,28.0,-285.0
-79.0,4.0,-3.0,-32.0,1.0,8.0,5.0,-286.0
-109.0,-46.0,-6.0,-21.0,10.0,10.0,38.0,-587.0
-85.0,-27.0,-9.0,-6.0,33.0,30.0,21.0,-1391.0
-78.0,-24.0,-3.0,3.0,34.0,17.0,0.0,-948.0
-146.0,-47.0,-13.0,-23.0,48.0,32.0,-3.0,-334.0
-179.0,-18.0,-11.0,-34.0,71.0,46.0,22.0,-801.0
-132.0,2.0,5.0,-44.0,39.0,27.0,10.0,-382.0
-91.0,22.0,22.0,-64.0,14.0,15.0,12.0,387.0
-37.0,21.0,6.0,-78.0,24.0,21.0,10.0,261.0
-24.0,27.0,-32.0,-64.0,0.0,27.0,1.0,404.0
-35.0,36.0,-34.0,-10.0,3.0,18.0,19.0,414.0
-36.0,29.0,-23.0,-32.0,20.0,20.0,16.0,409.0
7.0,24.0,-5.0,-19.0,10.0,37.0,26.0,434.0
21.0,16.0,-5.0,6.0,5.0,53.0,16.0,384.0
25.0,0.0,-3.0,-45.0,7.0,64.0,25.0,434.0
62.0,13.0,14.0,-49.0,30.0,95.0,36.0,365.0
0.0,26.0,5.0,-37.0,15.0,91.0,20.0,384.0
-43.0,44.0,-3.0,-24.0,34.0,61.0,7.0,327.0
-13.0,42.0,2.0,-10.0,29.0,36.0,22.0,303.0
-28.0,22.0,8.0,-36.0,-11.0,22.0,36.0,276.0
-76.0,27.0,-26.0,-15.0,-15.0,27.0,29.0,265.0
-111.0,16.0,-16.0,7.0,0.0,28.0,40.0,260.0
-62.0,25.0,10.0,0.0,3.0,28.0,20.0,282.0
8.0,10.0,-3.0,39.0,8.0,49.0,41.0,485.0
37.0,-7.0,9.0,64.0,40.0,94.0,93.0,700.0
89.0,40.0,30.0,87.0,55.0,119.0,116.0,718.0
107.0,53.0,60.0,84.0,37.0,129.0,80.0,497.0
80.0,46.0,42.0,33.0,30.0,87.0,41.0,409.0
33.0,26.0,10.0,12.0,34.0,79.0,61.0,334.0
-25.0,-18.0,8.0,7.0,20.0,111.0,23.0,369.0
-28.0,-14.0,-1.0,5.0,17.0,94.0,2.0,214.0
-63.0,3.0,-12.0,4.0,-21.0,42.0,-16.0,-33.0
-55.0,18.0,-50.0,-9.0,-12.0,39.0,-24.0,-114.0
-21.0,34.0,-34.0,-10.0,43.0,63.0,6.0,-75.0
-42.0,16.0,-16.0,-36.0,32.0,40.0,7.0,-126.0
-32.0,3.0,-17.0,-26.0,33.0,45.0,6.0,-693.0
-25.0,-6.0,-19.0,-17.0,71.0,49.0,-15.0,-818.0
14.0,-17.0,-36.0,-34.0,52.0,42.0,-3.0,-228.0
24.0,-26.0,-36.0,-60.0,46.0,43.0,-1.0,199.0
-25.0,-43.0,-26.0,-56.0,70.0,30.0,-3.0,239.0
-42.0,-57.0,-21.0,-25.0,72.0,15.0,-10.0,160.0
-62.0,-76.0,-30.0,-12.0,68.0,2.0,-17.0,17.0
-98.0,-83.0,-17.0,-15.0,66.0,32.0,8.0,-27.0
-61.0,-55.0,-6.0,-52.0,61.0,15.0,-11.0,-81.0
-36.0,-54.0,-27.0,-44.0,53.0,-11.0,-11.0,-149.0
-10.0,-83.0,-18.0,-24.0,71.0,-19.0,-1.0,-166.0
13.0,-63.0,-43.0,-52.0,78.0,-24.0,22.0,-278.0
23.0,-63.0,-64.0,-67.0,47.0,0.0,20.0,-269.0
35.0,-46.0,-37.0,-22.0,62.0,12.0,4.0,-360.0
10.0,-22.0,-13.0,-47.0,69.0,9.0,-22.0,-362.0
-7.0,-15.0,10.0,-53.0,68.0,39.0,-7.0,-350.0
-17.0,-14.0,-5.0,-42.0,90.0,36.0,18.0,-392.0
-5.0,-11.0,11.0,-61.0,111.0,26.0,-13.0,-370.0
-6.0,22.0,17.0,-41.0,125.0,47.0,13.0,-378.0
9.0,27.0,11.0,-36.0,109.0,46.0,5.0,-333.0
28.0,43.0,13.0,-23.0,137.0,39.0,19.0,-345.0
53.0,47.0,28.0,-28.0,157.0,48.0,47.0,-320.0
60.0,78.0,42.0,4.0,151.0,53.0,29.0,-301.0
7.0,74.0,10.0,6.0,88.0,1.0,45.0,-305.0
-15.0,13.0,-9.0,16.0,83.0,-13.0,59.0,-235.0
-31.0,4.0,-25.0,26.0,118.0,26.0,25.0,-210.0
-14.0,25.0,2.0,-3.0,93.0,2.0,35.0,-180.0
-5.0,54.0,1.0,-9.0,119.0,12.0,46.0,-166.0
12.0,52.0,-1.0,-9.0,131.0,5.0,38.0,-109.0
30.0,40.0,-8.0,0.0,114.0,33.0,38.0,25.0
35.0,35.0,-14.0,4.0,112.0,69.0,25.0,228.0
30.0,-14.0,6.0,-16.0,114.0,57.0,40.0,283.0
15.0,-98.0,-3.0,-27.0,111.0,69.0,33.0,135.0
-49.0,-181.0,6.0,-6.0,89.0,41.0,21.0,100.0
-99.0,-151.0,0.0,-2.0,53.0,63.0,34.0,-64.0
-71.0,-43.0,3.0,8.0,41.0,61.0,20.0,-275.0
-40.0,17.0,18.0,-5.0,52.0,36.0,18.0,-549.0
-26.0,46.0,12.0,-23.0,58.0,31.0,20.0,-797.0
-42.0,22.0,24.0,-19.0,47.0,20.0,36.0,-345.0
-32.0,5.0,6.0,-1.0,31.0,46.0,30.0,79.0
25.0,34.0,21.0,8.0,56.0,62.0,43.0,35.0
69.0,71.0,12.0,-10.0,66.0,81.0,36.0,153.0
31.0,147.0,-16.0,-6.0,60.0,54.0,9.0,125.0
-60.0,118.0,6.0,-24.0,42.0,54.0,14.0,90.0
-47.0,60.0,8.0,-8.0,24.0,61.0,1.0,103.0
7.0,33.0,15.0,12.0,25.0,74.0,5.0,53.0
-3.0,-23.0,6.0,-7.0,11.0,113.0,31.0,97.0
-26.0,-50.0,-3.0,15.0,7.0,78.0,23.0,29.0
-29.0,27.0,-8.0,-7.0,-1.0,61.0,17.0,-13.0
-9.0,95.0,-3.0,-14.0,-24.0,88.0,42.0,-21.0
-12.0,43.0,1.0,3.0,-32.0,78.0,18.0,23.0
0.0,-70.0,-12.0,0.0,-42.0,69.0,-1.0,69.0
-6.0,-78.0,2.0,6.0,-34.0,54.0,4.0,112.0
-4.0,-48.0,12.0,7.0,-5.0,31.0,7.0,85.0
-25.0,-36.0,1.0,18.0,16.0,19.0,29.0,54.0
-26.0,57.0,-10.0,-10.0,11.0,-12.0,8.0,108.0
-15.0,-3.0,3.0,1.0,-12.0,-13.0,21.0,107.0
-58.0,-40.0,-4.0,6.0,-20.0,-10.0,17.0,145.0
-29.0,-14.0,-5.0,-32.0,2.0,-21.0,29.0,236.0
-46.0,8.0,10.0,-20.0,-17.0,-19.0,44.0,261.0
-37.0,47.0,-11.0,-30.0,-43.0,-3.0,24.0,239.0
-25.0,18.0,-18.0,-32.0,-49.0,27.0,36.0,242.0
-46.0,0.0,-20.0,-54.0,-11.0,20.0,40.0,230.0
-35.0,3.0,-36.0,-68.0,65.0,-20.0,50.0,230.0
-50.0,4.0,-28.0,-52.0,80.0,-1.0,44.0,226.0
-36.0,-55.0,-27.0,-51.0,84.0,-3.0,34.0,201.0
1.0,-150.0,-18.0,-72.0,40.0,-48.0,48.0,214.0
17.0,-155.0,-2.0,-72.0,-19.0,-41.0,28.0,212.0
41.0,-63.0,11.0,-34.0,-56.0,-28.0,34.0,236.0
62.0,-20.0,-9.0,-26.0,-94.0,-30.0,38.0,239.0
47.0,10.0,-15.0,-34.0,-55.0,-8.0,25.0,213.0
33.0,13.0,-26.0,-28.0,-25.0,8.0,36.0,203.0
-18.0,21.0,-50.0,2.0,7.0,9.0,29.0,228.0
-22.0,21.0,-50.0,16.0,20.0,11.0,34.0,230.0
-4.0,25.0,-59.0,12.0,20.0,5.0,26.0,202.0
-16.0,37.0,-64.0,16.0,50.0,33.0,35.0,184.0
-44.0,26.0,-68.0,11.0,46.0,49.0,25.0,128.0
-42.0,47.0,-32.0,-13.0,50.0,53.0,27.0,106.0
-35.0,83.0,-26.0,-19.0,58.0,40.0,61.0,129.0
-36.0,138.0,-20.0,-32.0,26.0,97.0,50.0,126.0
-20.0,110.0,17.0,-48.0,-11.0,171.0,58.0,100.0
-35.0,92.0,19.0,-11.0,-17.0,109.0,84.0,63.0
-29.0,57.0,15.0,-2.0,-22.0,55.0,69.0,56.0
10.0,12.0,27.0,-4.0,-28.0,27.0,53.0,66.0
19.0,2.0,20.0,1.0,-28.0,39.0,50.0,100.0
7.0,-44.0,14.0,5.0,-33.0,51.0,46.0,130.0
12.0,-19.0,24.0,12.0,-47.0,61.0,38.0,172.0
17.0,12.0,11.0,17.0,-54.0,104.0,33.0,169.0
7.0,73.0,-5.0,43.0,-36.0,83.0,30.0,157.0
-8.0,160.0,-12.0,24.0,-43.0,79.0,1.0,151.0
-9.0,248.0,-15.0,10.0,-54.0,77.0,-12.0,94.0
0.0,282.0,2.0,-8.0,-63.0,97.0,14.0,10.0
-14.0,305.0,17.0,-27.0,-83.0,101.0,21.0,-42.0
-23.0,264.0,-1.0,-19.0,-70.0,57.0,14.0,-9.0
-10.0,190.0,20.0,-18.0,-77.0,54.0,20.0,43.0
-3.0,118.0,28.0,-5.0,-31.0,49.0,40.0,59.0
3.0,-95.0,40.0,-9.0,-12.0,20.0,20.0,38.0
14.0,-247.0,16.0,-22.0,-27.0,40.0,8.0,66.0
7.0,-351.0,-8.0,-22.0,24.0,3.0,33.0,111.0
-12.0,-437.0,1.0,-20.0,46.0,-42.0,14.0,84.0
4.0,-340.0,-10.0,-22.0,43.0,-23.0,31.0,95.0
-17.0,-347.0,-13.0,-23.0,18.0,-64.0,23.0,103.0
-17.0,-340.0,-31.0,-21.0,34.0,-35.0,34.0,74.0
27.0,-162.0,-20.0,-13.0,44.0,-39.0,56.0,92.0
3.0,-48.0,-32.0,1.0,-15.0,-10.0,46.0,23.0
24.0,34.0,-22.0,-18.0,-33.0,15.0,40.0,-10.0
26.0,25.0,-21.0,-32.0,-21.0,-25.0,21.0,7.0
-24.0,28.0,-21.0,-38.0,-52.0,-14.0,2.0,2.0
-39.0,-4.0,-33.0,-44.0,-47.0,6.0,-4.0,21.0
-23.0,9.0,-16.0,-25.0,-7.0,26.0,0.0,8.0
-29.0,28.0,-5.0,-21.0,8.0,41.0,21.0,44.0
-49.0,8.0,-17.0,-22.0,17.0,62.0,30.0,68.0
-17.0,34.0,1.0,-22.0,11.0,54.0,22.0,66.0
8.0,29.0,-34.0,-13.0,1.0,62.0,13.0,66.0
8.0,-13.0,-4.0,10.0,-20.0,-11.0,29.0,120.0
23.0,-40.0,-6.0,-15.0,30.0,-76.0,28.0,139.0
30.0,-43.0,-9.0,-13.0,37.0,-50.0,48.0,132.0
16.0,-38.0,15.0,19.0,14.0,-131.0,69.0,135.0
24.0,18.0,24.0,-6.0,31.0,-125.0,61.0,174.0
51.0,14.0,33.0,-25.0,49.0,21.0,58.0,239.0
71.0,-1.0,14.0,-4.0,43.0,-62.0,55.0,189.0
45.0,59.0,28.0,-2.0,-16.0,-76.0,43.0,112.0
28.0,143.0,39.0,-10.0,-44.0,-33.0,30.0,38.0
103.0,160.0,34.0,-16.0,-50.0,-82.0,28.0,-44.0
176.0,143.0,12.0,-34.0,-31.0,-73.0,12.0,-15.0
121.0,135.0,8.0,-41.0,-11.0,-81.0,13.0,24.0
-42.0,49.0,5.0,-32.0,37.0,-67.0,-13.0,-17.0
-156.0,-79.0,-17.0,-25.0,77.0,-80.0,-43.0,83.0
-138.0,-108.0,-3.0,-42.0,20.0,-90.0,-32.0,117.0
-60.0,8.0,-8.0,-10.0,27.0,-116.0,10.0,23.0
-45.0,5.0,-24.0,5.0,58.0,-134.0,22.0,123.0
2.0,-43.0,-22.0,-17.0,46.0,-124.0,19.0,-66.0
27.0,-45.0,-21.0,-12.0,96.0,-102.0,47.0,-401.0
-70.0,-43.0,15.0,4.0,100.0,-53.0,45.0,-235.0
-33.0,25.0,1.0,-28.0,69.0,-43.0,37.0,-46.0
15.0,25.0,-31.0,-18.0,8.0,-31.0,45.0,-265.0
-7.0,33.0,-28.0,8.0,-31.0,3.0,34.0,-549.0
-98.0,75.0,-18.0,0.0,-4.0,-8.0,33.0,-973.0
-371.0,63.0,-28.0,15.0,-17.0,-48.0,49.0,-664.0
-151.0,87.0,-8.0,7.0,-36.0,-22.0,38.0,58.0
433.0,71.0,10.0,26.0,-28.0,26.0,44.0,-79.0
633.0,40.0,-7.0,30.0,-18.0,70.0,54.0,63.0
538.0,50.0,-14.0,35.0,-4.0,50.0,45.0,95.0
89.0,8.0,-14.0,10.0,-2.0,50.0,56.0,86.0
-816.0,19.0,0.0,-17.0,31.0,53.0,56.0,157.0
-932.0,-18.0,-3.0,-5.0,46.0,46.0,45.0,9.0
-41.0,-36.0,-8.0,-14.0,33.0,25.0,40.0,74.0
269.0,-3.0,3.0,-20.0,48.0,19.0,50.0,-22.0
27.0,-7.0,24.0,-42.0,45.0,111.0,85.0,-5.0
-365.0,1.0,29.0,-20.0,37.0,166.0,103.0,-13.0
-416.0,46.0,4.0,-10.0,25.0,250.0,77.0,-52.0
-207.0,69.0,4.0,-33.0,0.0,300.0,39.0,-63.0
62.0,43.0,-3.0,-24.0,32.0,256.0,6.0,-62.0
2.0,68.0,-21.0,-51.0,64.0,74.0,13.0,-52.0
-1466.0,59.0,0.0,-48.0,81.0,-63.0,-4.0,-66.0
-2220.0,43.0,-32.0,-46.0,94.0,-226.0,-43.0,-20.0
-343.0,3.0,-16.0,-42.0,81.0,-463.0,-24.0,-78.0
1987.0,-50.0,-12.0,-34.0,80.0,-402.0,-23.0,-91.0
2987.0,-80.0,-12.0,-46.0,114.0,-151.0,-22.0,-111.0
2781.0,-66.0,13.0,-17.0,130.0,39.0,-22.0,-105.0
1767.0,-29.0,-6.0,-6.0,167.0,127.0,-53.0,-105.0
689.0,-54.0,-2.0,-29.0,165.0,246.0,-36.0,-168.0
-372.0,8.0,-13.0,-39.0,114.0,234.0,-18.0,-146.0
-634.0,34.0,-31.0,-25.0,100.0,211.0,-10.0,-90.0
-417.0,8.0,-44.0,-28.0,95.0,250.0,-21.0,-105.0
-710.0,4.0,-29.0,-25.0,70.0,311.0,-17.0,-96.0
-1131.0,-22.0,-11.0,-12.0,2.0,293.0,8.0,-65.0
-979.0,-42.0,-13.0,2.0,-11.0,197.0,-11.0,-98.0
-575.0,-23.0,-28.0,2.0,-12.0,248.0,-1.0,-69.0
-539.0,-11.0,5.0,-3.0,7.0,230.0,9.0,-43.0
-610.0,-12.0,18.0,2.0,49.0,197.0,13.0,-75.0
-1349.0,11.0,8.0,-16.0,34.0,274.0,-23.0,-93.0
-1466.0,23.0,35.0,-16.0,56.0,307.0,0.0,-52.0
-218.0,8.0,-9.0,12.0,15.0,262.0,-6.0,-26.0
212.0,-13.0,-15.0,-2.0,-19.0,275.0,-25.0,6.0
66.0,14.0,-11.0,-22.0,64.0,164.0,6.0,27.0
54.0,45.0,2.0,-14.0,47.0,59.0,-18.0,31.0
61.0,63.0,17.0,-24.0,33.0,1.0,21.0,43.0
31.0,98.0,4.0,-11.0,69.0,-143.0,0.0,60.0
-33.0,106.0,5.0,-11.0,-19.0,-74.0,8.0,96.0
294.0,66.0,10.0,8.0,-45.0,9.0,31.0,80.0
357.0,60.0,26.0,7.0,-40.0,134.0,36.0,77.0
464.0,53.0,14.0,12.0,-78.0,295.0,51.0,63.0
495.0,-3.0,8.0,20.0,-75.0,207.0,16.0,32.0
281.0,-20.0,-24.0,9.0,-70.0,-19.0,18.0,41.0
314.0,-54.0,7.0,-8.0,-83.0,-25.0,48.0,23.0
220.0,-64.0,2.0,-26.0,-82.0,36.0,28.0,3.0
147.0,-64.0,-33.0,-20.0,-77.0,83.0,6.0,23.0
-56.0,-100.0,-14.0,-47.0,-94.0,109.0,17.0,63.0
-64.0,-77.0,-5.0,-56.0,-131.0,91.0,12.0,105.0
31.0,-30.0,-10.0,-44.0,-131.0,89.0,-2.0,202.0
-93.0,16.0,-23.0,-54.0,-123.0,45.0,-33.0,329.0
-226.0,24.0,-25.0,-49.0,-138.0,51.0,-35.0,243.0
-79.0,47.0,-15.0,-46.0,-146.0,30.0,-19.0,174.0
130.0,45.0,-13.0,-79.0,-152.0,27.0,-29.0,188.0
144.0,-14.0,-23.0,-69.0,-155.0,38.0,-33.0,106.0
212.0,-1.0,-20.0,-36.0,-153.0,-14.0,-11.0,46.0
199.0,-6.0,-28.0,-18.0,-157.0,-37.0,-1.0,-211.0
175.0,5.0,8.0,4.0,-137.0,-10.0,-1.0,-100.0
163.0,4.0,-7.0,27.0,-125.0,61.0,17.0,531.0
1.0,-39.0,-10.0,28.0,-120.0,98.0,10.0,586.0
-208.0,-53.0,15.0,3.0,-120.0,50.0,13.0,461.0
-98.0,-70.0,12.0,1.0,-105.0,19.0,34.0,448.0
147.0,-96.0,13.0,3.0,-72.0,98.0,17.0,63.0
473.0,-43.0,6.0,-9.0,-47.0,124.0,36.0,-216.0
595.0,-16.0,-7.0,-22.0,-40.0,69.0,35.0,-545.0
299.0,-76.0,-4.0,-4.0,15.0,23.0,19.0,-265.0
139.0,-52.0,15.0,-17.0,31.0,-22.0,31.0,-63.0
50.0,-15.0,-3.0,-17.0,41.0,-33.0,42.0,-406.0
20.0,-11.0,-9.0,-8.0,68.0,-24.0,34.0,-120.0
39.0,30.0,-18.0,2.0,50.0,-52.0,48.0,207.0
71.0,22.0,-11.0,13.0,63.0,-120.0,64.0,290.0
24.0,-15.0,13.0,13.0,80.0,-116.0,59.0,308.0
-56.0,-11.0,21.0,15.0,100.0,-69.0,83.0,334.0
-13.0,0.0,10.0,-5.0,105.0,-35.0,67.0,271.0
56.0,25.0,5.0,-10.0,98.0,12.0,73.0,239.0
-10.0,85.0,10.0,-3.0,105.0,9.0,40.0,210.0
-280.0,54.0,-7.0,-9.0,138.0,-6.0,42.0,192.0
-518.0,44.0,27.0,-17.0,180.0,5.0,77.0,160.0
-157.0,87.0,16.0,-22.0,184.0,-82.0,39.0,153.0
342.0,75.0,23.0,-1.0,230.0,-253.0,79.0,190.0
328.0,21.0,5.0,-10.0,261.0,-255.0,74.0,136.0
243.0,-1.0,-12.0,-40.0,237.0,-177.0,60.0,131.0
38.0,-9.0,10.0,-11.0,224.0,-147.0,51.0,65.0
-27.0,-10.0,-6.0,-33.0,248.0,-157.0,32.0,47.0
-120.0,26.0,11.0,-42.0,236.0,-118.0,39.0,9.0
-227.0,16.0,-18.0,-42.0,213.0,-39.0,46.0,-54.0
-266.0,-21.0,-12.0,-57.0,237.0,25.0,50.0,-79.0
-392.0,-32.0,-4.0,-44.0,222.0,73.0,45.0,-86.0
-481.0,5.0,-36.0,-67.0,209.0,90.0,47.0,-111.0
-392.0,31.0,-22.0,-61.0,201.0,56.0,29.0,-155.0
-96.0,76.0,-26.0,-46.0,184.0,8.0,33.0,6.0
32.0,67.0,-8.0,-28.0,193.0,56.0,27.0,63.0
82.0,2.0,-6.0,-12.0,194.0,-7.0,51.0,-3.0
-15.0,0.0,-4.0,-14.0,180.0,-23.0,51.0,-5.0
-138.0,-26.0,-5.0,4.0,150.0,-7.0,35.0,-71.0
-138.0,-46.0,-12.0,16.0,161.0,-4.0,39.0,-101.0
-166.0,-70.0,13.0,20.0,170.0,-56.0,38.0,-128.0
-147.0,-28.0,-20.0,37.0,171.0,-84.0,48.0,-189.0
-75.0,-4.0,-23.0,38.0,177.0,-64.0,32.0,-84.0
53.0,-7.0,-15.0,36.0,161.0,-126.0,43.0,165.0
100.0,-15.0,-20.0,12.0,132.0,-47.0,47.0,104.0
147.0,-24.0,-1.0,5.0,100.0,-42.0,42.0,-52.0
109.0,34.0,-7.0,-2.0,111.0,-43.0,60.0,-13.0
137.0,24.0,1.0,11.0,80.0,-20.0,54.0,-113.0
122.0,4.0,6.0,21.0,66.0,-30.0,47.0,-340.0
-101.0,-5.0,-5.0,-5.0,47.0,-23.0,40.0,-211.0
-34.0,-27.0,-7.0,-21.0,12.0,-22.0,22.0,157.0
119.0,-28.0,-2.0,-39.0,16.0,-30.0,0.0,122.0
139.0,-55.0,-1.0,-44.0,-3.0,-82.0,-15.0,178.0
163.0,-69.0,-25.0,-41.0,-33.0,-74.0,-19.0,209.0
86.0,-55.0,-49.0,-51.0,-46.0,-56.0,-8.0,212.0
60.0,-32.0,-57.0,-75.0,-50.0,-59.0,2.0,279.0
5.0,18.0,-47.0,-65.0,-43.0,-37.0,23.0,212.0
-144.0,38.0,-49.0,-26.0,-45.0,15.0,24.0,286.0
-65.0,83.0,-31.0,-37.0,-26.0,75.0,34.0,235.0
-29.0,105.0,0.0,-44.0,-8.0,39.0,23.0,259.0
-104.0,87.0,-16.0,-33.0,-17.0,-78.0,16.0,249.0
-101.0,70.0,-2.0,-19.0,-46.0,-56.0,34.0,241.0
-140.0,62.0,15.0,-9.0,-43.0,-31.0,47.0,302.0
-170.0,15.0,17.0,11.0,-1.0,-98.0,59.0,426.0
-193.0,-1.0,19.0,13.0,-2.0,-81.0,53.0,273.0
-156.0,44.0,14.0,18.0,-1.0,-84.0,69.0,96.0
-102.0,26.0,19.0,8.0,-26.0,-56.0,42.0,312.0
-72.0,38.0,6.0,2.0,-18.0,-59.0,-6.0,147.0
-25.0,41.0,11.0,9.0,-13.0,-52.0,-17.0,-179.0
-64.0,55.0,-13.0,-20.0,-24.0,45.0,-3.0,-716.0
-119.0,66.0,-41.0,-26.0,-29.0,166.0,-1.0,-1013.0
4.0,30.0,-29.0,-30.0,-22.0,158.0,0.0,-415.0
86.0,9.0,-23.0,-18.0,12.0,53.0,30.0,-555.0
62.0,-3.0,-13.0,6.0,3.0,34.0,12.0,-993.0
11.0,-44.0,14.0,-4.0,19.0,-29.0,22.0,-276.0
-163.0,-92.0,19.0,-11.0,13.0,-47.0,16.0,52.0
-179.0,-59.0,-14.0,-16.0,32.0,-62.0,16.0,190.0
-45.0,14.0,2.0,-10.0,-1.0,-82.0,22.0,228.0
62.0,3.0,11.0,19.0,-7.0,-67.0,19.0,147.0
147.0,3.0,7.0,44.0,41.0,-5.0,25.0,273.0
112.0,40.0,9.0,23.0,49.0,20.0,23.0,141.0
127.0,2.0,12.0,-31.0,58.0,-4.0,61.0,207.0
177.0,-43.0,-7.0,-70.0,31.0,-7.0,49.0,148.0
212.0,-26.0,-7.0,-34.0,66.0,-15.0,28.0,153.0
328.0,30.0,4.0,-27.0,69.0,14.0,42.0,83.0
251.0,3.0,-31.0,-30.0,76.0,-6.0,64.0,66.0
68.0,-59.0,-6.0,-36.0,65.0,2.0,42.0,75.0
13.0,-28.0,-9.0,-46.0,66.0,3.0,37.0,-7.0
-32.0,30.0,-10.0,-30.0,58.0,-19.0,23.0,15.0
12.0,33.0,-34.0,-34.0,20.0,-11.0,2.0,-4.0
17.0,34.0,-46.0,-25.0,32.0,-6.0,14.0,17.0
-40.0,18.0,12.0,-24.0,23.0,33.0,15.0,-35.0
-6.0,-7.0,-3.0,-10.0,40.0,107.0,5.0,-36.0
-28.0,-15.0,7.0,2.0,14.0,119.0,1.0,-37.0
-10.0,-1.0,12.0,2.0,23.0,41.0,30.0,-21.0
-60.0,-27.0,20.0,-1.0,41.0,78.0,10.0,-48.0
-132.0,-29.0,17.0,-23.0,36.0,83.0,15.0,-88.0
-172.0,4.0,20.0,-45.0,-17.0,27.0,12.0,10.0
-221.0,-17.0,8.0,-20.0,-38.0,-33.0,-7.0,123.0
-93.0,25.0,-24.0,-33.0,-36.0,-129.0,-2.0,144.0
17.0,23.0,1.0,-35.0,-25.0,-155.0,-48.0,116.0
41.0,11.0,-22.0,-4.0,7.0,-362.0,-28.0,106.0
18.0,6.0,-20.0,-13.0,24.0,-281.0,-10.0,165.0
-45.0,-14.0,-33.0,18.0,96.0,-77.0,-29.0,-26.0
-45.0,21.0,-25.0,7.0,114.0,-167.0,-16.0,-584.0
-2.0,4.0,1.0,6.0,101.0,-107.0,-32.0,-818.0
-4.0,-21.0,-23.0,35.0,80.0,-156.0,-20.0,-670.0
-21.0,-15.0,-1.0,11.0,78.0,-102.0,-11.0,-427.0
-27.0,-4.0,7.0,-24.0,96.0,-1.0,-23.0,-186.0
-8.0,-19.0,11.0,-13.0,76.0,59.0,-3.0,164.0
1.0,-7.0,20.0,-18.0,43.0,138.0,14.0,153.0
-16.0,50.0,-5.0,-12.0,20.0,50.0,36.0,64.0
-8.0,49.0,1.0,3.0,44.0,66.0,25.0,76.0
37.0,34.0,21.0,-30.0,27.0,42.0,2.0,-37.0
15.0,27.0,0.0,-36.0,3.0,71.0,8.0,-90.0
-56.0,14.0,7.0,-41.0,5.0,132.0,1.0,-149.0
-83.0,12.0,11.0,-46.0,-30.0,99.0,15.0,-232.0
-79.0,16.0,-23.0,-36.0,12.0,84.0,25.0,-254.0
-27.0,13.0,-22.0,-12.0,69.0,20.0,29.0,39.0
-59.0,37.0,-13.0,-2.0,104.0,44.0,16.0,-44.0
-74.0,37.0,-2.0,-11.0,118.0,54.0,12.0,0.0
-46.0,25.0,10.0,-4.0,93.0,89.0,40.0,352.0
-43.0,22.0,7.0,-15.0,78.0,138.0,32.0,361.0
7.0,8.0,28.0,10.0,102.0,149.0,43.0,564.0
12.0,-12.0,13.0,15.0,97.0,155.0,36.0,479.0
-4.0,-20.0,-6.0,-13.0,65.0,79.0,30.0,318.0
-20.0,-12.0,-12.0,9.0,25.0,57.0,25.0,131.0
-66.0,-42.0,-22.0,-27.0,61.0,38.0,23.0,-297.0
-16.0,-34.0,-5.0,-19.0,125.0,132.0,27.0,-358.0
21.0,5.0,-14.0,4.0,95.0,246.0,38.0,-267.0
-27.0,7.0,-5.0,-33.0,38.0,246.0,25.0,-401.0
-54.0,-17.0,6.0,-28.0,-8.0,274.0,17.0,-245.0
-44.0,-5.0,8.0,-14.0,-42.0,265.0,32.0,82.0
8.0,16.0,-15.0,0.0,-16.0,267.0,13.0,43.0
5.0,0.0,-15.0,11.0,34.0,303.0,66.0,304.0
12.0,13.0,7.0,-8.0,40.0,289.0,61.0,408.0
34.0,9.0,10.0,-1.0,63.0,268.0,36.0,291.0
9.0,-4.0,21.0,0.0,66.0,203.0,36.0,465.0
16.0,-5.0,-3.0,-9.0,80.0,89.0,19.0,531.0
-1.0,5.0,-28.0,-40.0,93.0,127.0,54.0,274.0
-32.0,34.0,-45.0,-65.0,19.0,138.0,26.0,-331.0
-39.0,38.0,-71.0,-72.0,-12.0,96.0,5.0,-687.0
0.0,18.0,-80.0,-75.0,-47.0,100.0,32.0,-453.0
33.0,21.0,-33.0,-23.0,-72.0,41.0,28.0,-142.0
77.0,7.0,-20.0,11.0,-94.0,67.0,49.0,-325.0
100.0,-12.0,-12.0,27.0,-102.0,57.0,54.0,-158.0
53.0,12.0,8.0,30.0,-68.0,24.0,63.0,255.0
48.0,-21.0,-10.0,30.0,-60.0,30.0,79.0,202.0
-6.0,-75.0,2.0,32.0,14.0,37.0,58.0,236.0
-60.0,-97.0,12.0,25.0,55.0,91.0,25.0,210.0
-73.0,-77.0,-4.0,2.0,49.0,23.0,19.0,202.0
-62.0,1.0,-9.0,-40.0,36.0,-26.0,37.0,154.0
-48.0,31.0,3.0,-61.0,33.0,0.0,16.0,111.0
7.0,34.0,-16.0,-56.0,71.0,-38.0,-6.0,47.0
21.0,4.0,-18.0,-68.0,81.0,-39.0,28.0,22.0
4.0,-30.0,13.0,-86.0,141.0,10.0,-1.0,83.0
16.0,-108.0,9.0,-85.0,101.0,-14.0,-6.0,41.0
-12.0,-88.0,-1.0,-50.0,39.0,2.0,23.0,67.0
16.0,43.0,16.0,-46.0,31.0,50.0,21.0,58.0
39.0,41.0,-7.0,-39.0,-11.0,-23.0,12.0,66.0
28.0,43.0,-1.0,12.0,-24.0,-56.0,5.0,70.0
-14.0,7.0,7.0,-6.0,-75.0,-87.0,23.0,102.0
-45.0,-52.0,-24.0,-12.0,-131.0,-119.0,19.0,72.0
-50.0,-11.0,4.0,4.0,-95.0,-61.0,36.0,31.0
-63.0,34.0,-10.0,9.0,-92.0,-2.0,32.0,87.0
-35.0,68.0,-6.0,-1.0,-88.0,98.0,37.0,92.0
-18.0,70.0,13.0,-6.0,-51.0,243.0,47.0,74.0
9.0,20.0,-3.0,-5.0,-56.0,189.0,12.0,102.0
27.0,-24.0,2.0,-14.0,-3.0,136.0,7.0,145.0
-38.0,27.0,-3.0,-11.0,-19.0,183.0,16.0,156.0
-31.0,6.0,-9.0,-23.0,-45.0,145.0,27.0,190.0
21.0,-23.0,5.0,-12.0,-12.0,168.0,48.0,267.0
25.0,-8.0,7.0,20.0,17.0,200.0,63.0,475.0
-3.0,15.0,-17.0,-5.0,37.0,206.0,51.0,569.0
-16.0,116.0,-3.0,10.0,9.0,193.0,61.0,518.0
4.0,115.0,-17.0,16.0,17.0,197.0,56.0,524.0
-7.0,62.0,1.0,18.0,49.0,254.0,80.0,361.0
27.0,79.0,15.0,44.0,56.0,248.0,80.0,-53.0
34.0,60.0,-2.0,19.0,28.0,259.0,30.0,-472.0
15.0,40.0,41.0,25.0,39.0,268.0,65.0,-577.0
-1.0,30.0,24.0,25.0,59.0,241.0,82.0,-215.0
-33.0,1.0,15.0,26.0,58.0,214.0,66.0,221.0
-38.0,-37.0,-4.0,5.0,61.0,214.0,40.0,296.0
-16.0,-125.0,-20.0,-6.0,53.0,246.0,16.0,168.0
-26.0,-244.0,-6.0,5.0,65.0,225.0,31.0,176.0
-66.0,-179.0,0.0,-2.0,112.0,220.0,47.0,66.0
21.0,-6.0,14.0,-21.0,104.0,167.0,39.0,-269.0
58.0,-46.0,-10.0,-32.0,76.0,133.0,21.0,-909.0
13.0,-23.0,-11.0,-25.0,86.0,163.0,27.0,-1192.0
18.0,58.0,-7.0,-6.0,73.0,144.0,21.0,-524.0
18.0,62.0,-39.0,-3.0,28.0,111.0,15.0,-175.0
42.0,89.0,-37.0,-36.0,-34.0,129.0,17.0,-21.0
25.0,53.0,-46.0,-36.0,-145.0,133.0,-16.0,50.0
-4.0,53.0,-42.0,-18.0,-236.0,77.0,-39.0,120.0
-61.0,22.0,-18.0,-11.0,-191.0,113.0,-28.0,210.0
-193.0,-29.0,-42.0,7.0,-162.0,109.0,-42.0,129.0
-244.0,-18.0,-42.0,2.0,-181.0,132.0,-33.0,241.0
-132.0,-5.0,-54.0,11.0,-170.0,152.0,-45.0,164.0
-23.0,29.0,-47.0,15.0,-187.0,79.0,-49.0,170.0
11.0,-4.0,-53.0,6.0,-187.0,67.0,-40.0,90.0
1.0,5.0,-63.0,11.0,-185.0,29.0,-60.0,76.0
6.0,74.0,-35.0,-9.0,-180.0,-32.0,5.0,96.0
24.0,47.0,-17.0,12.0,-130.0,-108.0,27.0,63.0
35.0,-20.0,5.0,-22.0,-107.0,-169.0,10.0,96.0
39.0,-14.0,-3.0,-63.0,-131.0,-156.0,14.0,42.0
6.0,34.0,-6.0,-72.0,-135.0,-177.0,13.0,61.0
-6.0,-20.0,24.0,-59.0,-86.0,-173.0,10.0,1.0
29.0,-41.0,47.0,-37.0,-20.0,-173.0,4.0,-46.0
81.0,-53.0,21.0,-38.0,-44.0,-159.0,31.0,-153.0
42.0,-91.0,-1.0,-41.0,-29.0,10.0,26.0,-179.0
11.0,-91.0,14.0,-34.0,55.0,16.0,3.0,-82.0
36.0,-86.0,-2.0,-36.0,71.0,-71.0,-12.0,-62.0
11.0,-81.0,24.0,-64.0,132.0,40.0,4.0,24.0
-15.0,-74.0,67.0,-52.0,164.0,66.0,4.0,170.0
-34.0,19.0,45.0,-65.0,165.0,105.0,5.0,77.0
-32.0,49.0,43.0,-67.0,140.0,93.0,44.0,-29.0
13.0,37.0,85.0,-103.0,104.0,61.0,35.0,55.0
80.0,95.0,114.0,-120.0,106.0,55.0,40.0,41.0
60.0,93.0,116.0,-116.0,135.0,-6.0,61.0,43.0
16.0,41.0,121.0,-140.0,243.0,30.0,62.0,18.0
44.0,54.0,124.0,-133.0,272.0,31.0,58.0,-72.0
51.0,44.0,111.0,-141.0,285.0,50.0,54.0,-235.0
18.0,-46.0,72.0,-108.0,314.0,30.0,58.0,-219.0
-49.0,-53.0,56.0,-93.0,282.0,37.0,78.0,0.0
-87.0,66.0,85.0,-52.0,272.0,38.0,75.0,43.0
-132.0,-5.0,57.0,-57.0,178.0,16.0,59.0,112.0
-122.0,6.0,41.0,-65.0,101.0,-7.0,66.0,227.0
-78.0,-12.0,30.0,-38.0,83.0,-21.0,41.0,224.0
-114.0,-73.0,-13.0,-42.0,60.0,-33.0,24.0,-138.0
-58.0,78.0,-9.0,-21.0,49.0,-81.0,29.0,-98.0
2.0,14.0,-21.0,-22.0,62.0,-63.0,9.0,178.0
-7.0,-22.0,-56.0,2.0,6.0,-87.0,13.0,59.0
16.0,31.0,-73.0,33.0,7.0,-124.0,2.0,131.0
76.0,56.0,-96.0,36.0,93.0,-116.0,25.0,74.0
96.0,3.0,-128.0,51.0,45.0,-129.0,41.0,95.0
28.0,-88.0,-129.0,66.0,-25.0,-124.0,28.0,139.0
-34.0,-50.0,-89.0,69.0,17.0,-114.0,50.0,104.0
-20.0,21.0,-94.0,69.0,23.0,-124.0,33.0,83.0
-35.0,90.0,-92.0,67.0,-34.0,-129.0,24.0,17.0
-35.0,98.0,-65.0,69.0,-42.0,-127.0,36.0,82.0
-6.0,118.0,-67.0,78.0,-59.0,-94.0,46.0,62.0
11.0,122.0,-90.0,85.0,-89.0,-101.0,54.0,33.0
35.0,93.0,-125.0,63.0,-160.0,-138.0,33.0,-26.0
60.0,95.0,-99.0,48.0,-227.0,-169.0,49.0,-227.0
51.0,85.0,-79.0,77.0,-285.0,-196.0,50.0,-389.0
-21.0,15.0,-89.0,54.0,-321.0,-173.0,20.0,-157.0
-72.0,-98.0,-89.0,31.0,-248.0,-175.0,19.0,196.0
-233.0,-212.0,-86.0,52.0,-203.0,-182.0,16.0,634.0
-188.0,-145.0,-65.0,59.0,-269.0,-140.0,5.0,1020.0
-51.0,16.0,-48.0,25.0,-351.0,-81.0,4.0,778.0
-76.0,12.0,-30.0,33.0,-276.0,-3.0,14.0,295.0
-69.0,18.0,-41.0,50.0,-150.0,-19.0,3.0,-325.0
-90.0,-28.0,-47.0,11.0,-205.0,-47.0,6.0,-788.0
-43.0,-101.0,-12.0,-9.0,-288.0,-88.0,0.0,-1330.0
-110.0,-55.0,2.0,-13.0,-333.0,-157.0,-22.0,-2128.0
-196.0,-40.0,-12.0,-13.0,-356.0,-143.0,-6.0,-1497.0
-32.0,-36.0,-28.0,-19.0,-360.0,-97.0,1.0,-223.0
196.0,-19.0,6.0,-16.0,-324.0,-94.0,-9.0,169.0
33.0,-11.0,31.0,-5.0,-291.0,-104.0,-17.0,334.0
-224.0,27.0,16.0,2.0,-311.0,-81.0,-22.0,308.0
-228.0,23.0,13.0,-1.0,-295.0,-155.0,4.0,434.0
61.0,-12.0,42.0,-5.0,-262.0,-97.0,-3.0,529.0
316.0,9.0,51.0,19.0,-256.0,10.0,-4.0,474.0
473.0,34.0,39.0,9.0,-307.0,13.0,-10.0,536.0
618.0,25.0,47.0,-1.0,-350.0,90.0,-2.0,489.0
250.0,70.0,31.0,1.0,-339.0,142.0,14.0,387.0
333.0,37.0,34.0,-5.0,-326.0,159.0,5.0,-121.0
-310.0,28.0,40.0,-8.0,-299.0,111.0,24.0,-406.0
-1105.0,63.0,18.0,-11.0,-299.0,81.0,-20.0,27.0
-1305.0,58.0,-6.0,-22.0,-360.0,58.0,-27.0,293.0
-1235.0,73.0,11.0,-23.0,-328.0,32.0,-20.0,161.0
465.0,30.0,7.0,-16.0,-328.0,57.0,-11.0,258.0
277.0,5.0,7.0,-46.0,-380.0,35.0,25.0,196.0
-256.0,-32.0,-3.0,-54.0,-314.0,18.0,21.0,146.0
1541.0,-39.0,-9.0,-25.0,-213.0,4.0,45.0,176.0
1791.0,-47.0,8.0,-46.0,-193.0,-3.0,54.0,90.0
1307.0,-72.0,9.0,-65.0,-160.0,-7.0,47.0,258.0
1038.0,-60.0,11.0,-45.0,-33.0,4.0,33.0,200.0
-88.0,-31.0,14.0,-68.0,-31.0,-9.0,10.0,43.0
-303.0,-26.0,16.0,-72.0,-53.0,-39.0,17.0,77.0
-645.0,-43.0,2.0,-92.0,-59.0,-66.0,21.0,22.0
-1280.0,12.0,30.0,-86.0,-118.0,-29.0,25.0,28.0
-672.0,19.0,-8.0,-52.0,-93.0,-24.0,42.0,88.0
13.0,52.0,-3.0,-48.0,-95.0,-51.0,73.0,72.0
824.0,85.0,5.0,-40.0,-77.0,-33.0,95.0,43.0
772.0,76.0,-29.0,-10.0,-34.0,-65.0,83.0,9.0
267.0,40.0,-3.0,-10.0,-34.0,-84.0,93.0,-29.0
-518.0,5.0,-11.0,-20.0,-46.0,-84.0,71.0,-65.0
-1540.0,50.0,1.0,-7.0,-64.0,-22.0,54.0,-65.0
-909.0,37.0,9.0,-18.0,-60.0,45.0,72.0,-98.0
-150.0,73.0,-12.0,-28.0,31.0,95.0,44.0,-147.0
24.0,44.0,-15.0,-28.0,58.0,152.0,40.0,-148.0
-213.0,-35.0,-4.0,-25.0,1.0,180.0,41.0,-98.0
-691.0,10.0,-12.0,-34.0,125.0,139.0,59.0,-52.0
-340.0,45.0,24.0,-31.0,123.0,44.0,49.0,-53.0
-105.0,83.0,30.0,-26.0,85.0,-17.0,38.0,-50.0
95.0,75.0,23.0,15.0,131.0,-194.0,56.0,-24.0
157.0,43.0,27.0,10.0,141.0,-88.0,9.0,6.0
-307.0,8.0,15.0,2.0,176.0,13.0,26.0,38.0
154.0,-16.0,28.0,19.0,218.0,-82.0,44.0,46.0
543.0,-3.0,8.0,-10.0,131.0,15.0,24.0,-1.0
204.0,-8.0,11.0,0.0,6.0,-81.0,15.0,-7.0
-957.0,-30.0,-9.0,-10.0,106.0,-24.0,21.0,2.0
-1856.0,-70.0,-17.0,-10.0,169.0,90.0,56.0,-20.0
-609.0,-68.0,15.0,-6.0,235.0,26.0,75.0,21.0
357.0,-36.0,20.0,16.0,202.0,62.0,47.0,42.0
1281.0,-33.0,12.0,27.0,165.0,40.0,43.0,60.0
1950.0,-42.0,1.0,5.0,224.0,47.0,50.0,-34.0
1507.0,-10.0,12.0,-7.0,199.0,65.0,25.0,1.0
1030.0,-21.0,3.0,-20.0,162.0,71.0,4.0,503.0
373.0,-45.0,-7.0,-32.0,97.0,75.0,-2.0,564.0
204.0,-33.0,-28.0,-26.0,109.0,84.0,16.0,564.0
62.0,-55.0,-4.0,-28.0,112.0,83.0,13.0,540.0
110.0,-43.0,-14.0,-49.0,97.0,63.0,7.0,290.0
-150.0,2.0,-39.0,-48.0,129.0,58.0,2.0,-33.0
-356.0,1.0,-9.0,-84.0,220.0,44.0,7.0,-1339.0
-476.0,-18.0,-24.0,-56.0,245.0,38.0,12.0,-1841.0
-620.0,3.0,-21.0,-47.0,208.0,79.0,6.0,-1521.0
-331.0,25.0,-7.0,-40.0,229.0,65.0,-10.0,-883.0
-382.0,68.0,-4.0,-27.0,261.0,82.0,-7.0,-32.0
-218.0,73.0,-32.0,-30.0,272.0,124.0,-2.0,60.0
-17.0,52.0,-34.0,-11.0,281.0,87.0,-15.0,409.0
96.0,26.0,-10.0,-17.0,299.0,57.0,-9.0,670.0
21.0,-4.0,17.0,-5.0,328.0,51.0,-10.0,731.0
-154.0,-8.0,27.0,6.0,314.0,93.0,24.0,680.0
-433.0,-39.0,9.0,-11.0,314.0,66.0,29.0,326.0
-909.0,-11.0,15.0,-9.0,328.0,107.0,-11.0,32.0
-560.0,41.0,1.0,-2.0,354.0,158.0,3.0,-431.0
322.0,49.0,0.0,11.0,364.0,138.0,40.0,-730.0
843.0,49.0,-10.0,13.0,346.0,152.0,50.0,-753.0
1085.0,45.0,-41.0,1.0,390.0,158.0,59.0,-187.0
595.0,25.0,-42.0,15.0,403.0,144.0,41.0,210.0
-1474.0,-66.0,-20.0,-14.0,385.0,130.0,50.0,15.0
-2374.0,-109.0,-13.0,-14.0,379.0,154.0,48.0,161.0
-120.0,-129.0,-41.0,-18.0,375.0,177.0,26.0,129.0
1606.0,-99.0,-28.0,-17.0,385.0,196.0,39.0,148.0
2353.0,-44.0,-30.0,-36.0,391.0,180.0,39.0,187.0
2092.0,-69.0,-16.0,-35.0,412.0,141.0,42.0,149.0
986.0,-81.0,-2.0,-41.0,432.0,119.0,42.0,247.0
382.0,-29.0,-5.0,-44.0,422.0,90.0,60.0,243.0
-341.0,28.0,4.0,-22.0,402.0,74.0,54.0,221.0
-244.0,64.0,5.0,-38.0,390.0,104.0,65.0,70.0
-443.0,95.0,-1.0,4.0,373.0,82.0,56.0,100.0
-691.0,73.0,-2.0,15.0,393.0,40.0,47.0,160.0
-901.0,77.0,20.0,22.0,409.0,16.0,28.0,-51.0
-1016.0,50.0,-15.0,0.0,375.0,-35.0,24.0,-274.0
-889.0,26.0,-7.0,-9.0,348.0,-23.0,21.0,-301.0
-508.0,-1.0,-18.0,14.0,340.0,-33.0,-29.0,16.0
341.0,5.0,-34.0,-8.0,332.0,-48.0,1.0,29.0
586.0,13.0,-21.0,-8.0,318.0,-64.0,12.0,-127.0
654.0,-35.0,-38.0,-19.0,306.0,-75.0,-6.0,190.0
334.0,-16.0,-20.0,-38.0,293.0,-13.0,14.0,165.0
149.0,-5.0,-15.0,-21.0,277.0,-53.0,3.0,61.0
-42.0,3.0,-6.0,-18.0,247.0,-102.0,-8.0,103.0
-323.0,-12.0,-14.0,-27.0,288.0,-123.0,-21.0,14.0
-710.0,5.0,-17.0,-22.0,297.0,-123.0,-6.0,13.0
-1000.0,15.0,-9.0,-20.0,297.0,-83.0,-23.0,91.0
-437.0,21.0,-6.0,2.0,282.0,-98.0,-33.0,213.0
-158.0,41.0,-11.0,-40.0,236.0,-86.0,-13.0,165.0
-380.0,37.0,-11.0,-41.0,245.0,-81.0,0.0,218.0
-1127.0,26.0,10.0,-30.0,219.0,-86.0,22.0,223.0
-1300.0,-13.0,-3.0,-41.0,241.0,-83.0,8.0,127.0
-44.0,3.0,-2.0,-26.0,260.0,-101.0,-11.0,96.0
1095.0,19.0,-40.0,-29.0,258.0,-151.0,-2.0,83.0
1987.0,54.0,-22.0,-7.0,253.0,-189.0,8.0,108.0
2052.0,37.0,14.0,6.0,184.0,-113.0,11.0,25.0
1222.0,11.0,-5.0,13.0,133.0,-36.0,14.0,32.0
166.0,3.0,-5.0,-2.0,109.0,-32.0,45.0,5.0
-508.0,-16.0,12.0,-18.0,111.0,-29.0,59.0,31.0
-191.0,18.0,21.0,-11.0,71.0,-27.0,28.0,50.0
-24.0,-27.0,17.0,-1.0,55.0,14.0,35.0,39.0
-555.0,-67.0,10.0,-9.0,77.0,8.0,24.0,92.0
-1634.0,-92.0,12.0,-39.0,61.0,2.0,32.0,112.0
-1522.0,-36.0,20.0,-26.0,69.0,2.0,60.0,124.0
-1200.0,9.0,12.0,-39.0,20.0,0.0,41.0,106.0
-1233.0,-12.0,18.0,-28.0,9.0,33.0,66.0,165.0
226.0,-27.0,-1.0,-16.0,19.0,35.0,54.0,170.0
1095.0,-57.0,7.0,8.0,-4.0,50.0,58.0,187.0
1181.0,-62.0,10.0,25.0,31.0,44.0,53.0,434.0
1237.0,-62.0,1.0,16.0,9.0,50.0,43.0,1026.0
762.0,-22.0,20.0,23.0,-2.0,38.0,29.0,1388.0
162.0,-24.0,11.0,-1.0,17.0,49.0,38.0,1047.0
-844.0,-13.0,15.0,7.0,-7.0,61.0,64.0,719.0
-1324.0,58.0,-24.0,22.0,-17.0,67.0,39.0,275.0
-973.0,44.0,-4.0,22.0,-56.0,94.0,42.0,-385.0
-1019.0,28.0,14.0,18.0,-47.0,67.0,33.0,-1339.0
-484.0,51.0,-18.0,-7.0,-39.0,97.0,62.0,-2401.0
979.0,86.0,-10.0,-35.0,-42.0,106.0,51.0,-1469.0
1441.0,128.0,-16.0,-10.0,-19.0,81.0,42.0,-46.0
2418.0,81.0,12.0,-17.0,-38.0,98.0,62.0,-292.0
2874.0,67.0,-3.0,-23.0,-32.0,97.0,31.0,-418.0
1959.0,92.0,-14.0,18.0,-32.0,62.0,-23.0,-875.0
935.0,60.0,0.0,-4.0,-56.0,48.0,-22.0,-594.0
-698.0,20.0,4.0,2.0,-29.0,56.0,5.0,499.0
-915.0,-8.0,7.0,0.0,-29.0,44.0,-23.0,17.0
-865.0,15.0,-24.0,-30.0,-22.0,47.0,-26.0,59.0
-1544.0,55.0,-9.0,-44.0,-14.0,14.0,-33.0,255.0
-2244.0,80.0,-6.0,-49.0,-26.0,16.0,-19.0,128.0
-2061.0,86.0,-3.0,-50.0,-25.0,29.0,-44.0,275.0
-873.0,52.0,10.0,-49.0,-29.0,12.0,-38.0,181.0
-374.0,36.0,-8.0,-25.0,-36.0,33.0,-3.0,275.0
876.0,-63.0,1.0,-10.0,-60.0,29.0,-24.0,200.0
2276.0,-190.0,-5.0,-13.0,-26.0,40.0,13.0,187.0
1637.0,-160.0,21.0,-25.0,-20.0,25.0,21.0,190.0
378.0,-72.0,14.0,-3.0,-23.0,-34.0,-9.0,168.0
-141.0,-26.0,-8.0,4.0,-43.0,-23.0,2.0,220.0
303.0,22.0,-8.0,-17.0,-70.0,-22.0,10.0,210.0
106.0,34.0,-14.0,-7.0,-61.0,-85.0,1.0,218.0
-208.0,17.0,-8.0,-14.0,-70.0,-140.0,8.0,178.0
-506.0,56.0,-20.0,-21.0,-67.0,-71.0,-11.0,88.0
-951.0,106.0,-49.0,5.0,-67.0,-22.0,-4.0,-63.0
-1495.0,138.0,-24.0,-11.0,-11.0,-16.0,27.0,31.0
-2061.0,87.0,-18.0,-20.0,12.0,33.0,-4.0,213.0
-1501.0,1.0,-24.0,-37.0,-18.0,9.0,-11.0,66.0
-757.0,-3.0,-17.0,-53.0,-49.0,-2.0,-8.0,-206.0
-323.0,15.0,-41.0,-10.0,-90.0,-12.0,7.0,-183.0
183.0,105.0,-42.0,-22.0,-64.0,-12.0,17.0,-240.0
427.0,144.0,-15.0,-14.0,-105.0,-44.0,23.0,-541.0
399.0,70.0,-23.0,-42.0,-105.0,28.0,41.0,-572.0
462.0,0.0,-21.0,-77.0,-85.0,45.0,49.0,42.0
368.0,-56.0,-11.0,-55.0,-83.0,-44.0,-6.0,817.0
342.0,-97.0,-11.0,-42.0,-63.0,38.0,22.0,751.0
277.0,-151.0,-36.0,-43.0,-72.0,53.0,59.0,212.0
209.0,-111.0,-22.0,-17.0,-78.0,82.0,51.0,47.0
263.0,-69.0,14.0,-25.0,-102.0,88.0,55.0,186.0
275.0,-94.0,18.0,-31.0,-90.0,24.0,32.0,20.0
358.0,-85.0,11.0,-16.0,-96.0,10.0,46.0,-62.0
359.0,-72.0,-2.0,-29.0,-98.0,9.0,40.0,-201.0
370.0,-69.0,-22.0,6.0,-74.0,19.0,44.0,-267.0
424.0,-73.0,-8.0,6.0,-108.0,5.0,30.0,-323.0
269.0,-64.0,20.0,7.0,-107.0,47.0,38.0,-386.0
176.0,-52.0,27.0,13.0,-75.0,134.0,63.0,54.0
161.0,-10.0,27.0,35.0,-48.0,112.0,87.0,-63.0
90.0,21.0,16.0,33.0,-54.0,28.0,73.0,-75.0
41.0,19.0,5.0,9.0,-59.0,44.0,32.0,25.0
-27.0,66.0,11.0,21.0,-56.0,15.0,67.0,-37.0
9.0,113.0,-4.0,0.0,-74.0,29.0,38.0,16.0
112.0,129.0,-18.0,15.0,-58.0,33.0,17.0,-64.0
263.0,77.0,2.0,11.0,-51.0,1.0,54.0,-38.0
330.0,33.0,9.0,-2.0,-38.0,38.0,54.0,-63.0
202.0,5.0,15.0,5.0,-20.0,14.0,50.0,-14.0
67.0,-23.0,12.0,-28.0,-9.0,33.0,34.0,3.0
-5.0,-38.0,-7.0,-30.0,25.0,50.0,18.0,14.0
-38.0,-63.0,9.0,-13.0,18.0,7.0,18.0,7.0
-28.0,-10.0,16.0,-17.0,64.0,-2.0,1.0,-31.0
-17.0,19.0,-14.0,-20.0,52.0,5.0,-23.0,-29.0
-66.0,-10.0,-8.0,-30.0,65.0,11.0,-36.0,-25.0
-110.0,0.0,7.0,-22.0,93.0,13.0,-18.0,9.0
-129.0,53.0,-13.0,-10.0,71.0,5.0,-9.0,-14.0
-125.0,117.0,-13.0,-29.0,99.0,-11.0,-31.0,-9.0
-47.0,93.0,-14.0,-37.0,74.0,-9.0,-9.0,-13.0
73.0,46.0,-22.0,-28.0,77.0,1.0,4.0,-16.0
174.0,7.0,-4.0,-54.0,101.0,38.0,-19.0,30.0
110.0,-89.0,6.0,-28.0,105.0,47.0,-18.0,74.0
-40.0,-161.0,-14.0,-14.0,131.0,51.0,-24.0,286.0
-128.0,-190.0,-18.0,-24.0,137.0,84.0,-22.0,781.0
-247.0,-218.0,-2.0,-20.0,143.0,51.0,-10.0,938.0
-285.0,-205.0,6.0,-23.0,134.0,43.0,-2.0,751.0
-174.0,-122.0,-2.0,-13.0,112.0,20.0,8.0,572.0
-48.0,-27.0,14.0,-30.0,97.0,24.0,38.0,119.0
-54.0,6.0,9.0,-20.0,96.0,42.0,23.0,-608.0
-96.0,17.0,-1.0,-12.0,61.0,19.0,30.0,-1904.0
-84.0,13.0,-5.0,-4.0,31.0,30.0,20.0,-2723.0
-88.0,36.0,-9.0,8.0,36.0,34.0,26.0,-1255.0
-63.0,57.0,18.0,13.0,38.0,40.0,58.0,-236.0
-71.0,74.0,1.0,38.0,40.0,37.0,58.0,-327.0
-75.0,103.0,-5.0,9.0,29.0,37.0,79.0,341.0
-60.0,81.0,-11.0,-14.0,-7.0,49.0,83.0,259.0
-75.0,83.0,4.0,-11.0,-32.0,41.0,80.0,304.0
-110.0,57.0,14.0,-9.0,-37.0,20.0,104.0,483.0
-73.0,52.0,0.0,8.0,-74.0,8.0,107.0,332.0
-60.0,54.0,-15.0,-14.0,-77.0,32.0,88.0,474.0
-55.0,102.0,-17.0,-2.0,-60.0,40.0,69.0,241.0
-77.0,128.0,-1.0,-27.0,-37.0,36.0,76.0,247.0
-102.0,90.0,-8.0,-36.0,-25.0,42.0,61.0,339.0
-8.0,43.0,6.0,-6.0,-25.0,-6.0,77.0,339.0
65.0,1.0,2.0,-14.0,-7.0,-14.0,93.0,344.0
59.0,9.0,19.0,-27.0,-15.0,-30.0,114.0,304.0
35.0,-3.0,30.0,-33.0,17.0,-44.0,113.0,261.0
16.0,5.0,15.0,-44.0,63.0,-37.0,73.0,190.0
-22.0,21.0,5.0,-49.0,41.0,-48.0,77.0,195.0
-16.0,52.0,-22.0,-23.0,40.0,-38.0,48.0,159.0
-6.0,58.0,-18.0,-38.0,52.0,-18.0,70.0,161.0
24.0,36.0,-26.0,-25.0,64.0,-12.0,50.0,139.0
45.0,18.0,-37.0,5.0,23.0,0.0,41.0,112.0
25.0,-4.0,-22.0,-3.0,-19.0,2.0,63.0,117.0
-14.0,-24.0,-28.0,-5.0,-48.0,14.0,40.0,106.0
-45.0,-56.0,-26.0,4.0,-95.0,25.0,29.0,112.0
-9.0,-22.0,-34.0,-3.0,-84.0,11.0,-6.0,120.0
4.0,-4.0,-30.0,-1.0,-92.0,18.0,12.0,146.0
-16.0,-12.0,-36.0,4.0,-110.0,21.0,37.0,162.0
3.0,-10.0,-36.0,4.0,-105.0,46.0,31.0,182.0
-16.0,-23.0,-18.0,-5.0,-112.0,53.0,33.0,169.0
-39.0,-11.0,-41.0,-17.0,-186.0,34.0,25.0,160.0
-40.0,12.0,-23.0,-15.0,-215.0,42.0,29.0,157.0
-51.0,60.0,-22.0,-22.0,-212.0,50.0,45.0,119.0
-33.0,59.0,-1.0,1.0,-209.0,33.0,73.0,134.0
-34.0,84.0,20.0,-6.0,-201.0,17.0,76.0,193.0
-24.0,94.0,-23.0,-11.0,-234.0,21.0,46.0,267.0
9.0,93.0,-17.0,-6.0,-216.0,57.0,19.0,247.0
23.0,106.0,-3.0,-13.0,-248.0,48.0,28.0,174.0
21.0,58.0,-8.0,-4.0,-254.0,28.0,11.0,124.0
50.0,-59.0,13.0,-12.0,-242.0,29.0,10.0,201.0
90.0,-114.0,11.0,-28.0,-218.0,50.0,28.0,176.0
70.0,-72.0,17.0,-33.0,-194.0,89.0,7.0,-339.0
45.0,-92.0,44.0,-43.0,-211.0,94.0,-4.0,-508.0
-12.0,-127.0,10.0,-53.0,-199.0,97.0,-10.0,-137.0
-64.0,-253.0,-1.0,-62.0,-212.0,97.0,6.0,-130.0
-49.0,-193.0,-1.0,-28.0,-225.0,115.0,14.0,-357.0
-23.0,17.0,-14.0,-14.0,-256.0,124.0,2.0,-475.0
25.0,-36.0,9.0,-43.0,-267.0,110.0,-10.0,-240.0
-10.0,-7.0,-5.0,-52.0,-268.0,132.0,-6.0,89.0
-34.0,70.0,-9.0,-34.0,-253.0,146.0,-20.0,11.0
-14.0,56.0,-5.0,-22.0,-251.0,134.0,-41.0,163.0
7.0,73.0,7.0,-10.0,-268.0,134.0,-20.0,160.0
-4.0,43.0,-4.0,-20.0,-259.0,131.0,-35.0,37.0
