-186.0,72.0,333.0,276.0,2760.0,-267.0,1027.0,-166.0
-321.0,44.0,624.0,220.0,2878.0,-533.0,455.0,-179.0
-357.0,1.0,792.0,137.0,2810.0,-472.0,-318.0,-183.0
-106.0,-29.0,857.0,127.0,3008.0,-354.0,-946.0,-121.0
98.0,-24.0,899.0,103.0,3332.0,-81.0,-1605.0,-108.0
249.0,-76.0,234.0,49.0,3334.0,151.0,-1533.0,-75.0
200.0,-125.0,-615.0,-44.0,3346.0,498.0,-1816.0,-157.0
328.0,-129.0,-971.0,-126.0,3008.0,738.0,-1462.0,-136.0
582.0,-133.0,-877.0,-119.0,2907.0,544.0,485.0,-135.0
595.0,-100.0,830.0,-107.0,2578.0,36.0,1288.0,-183.0
758.0,-93.0,2989.0,-31.0,2251.0,-262.0,542.0,-196.0
1108.0,-111.0,2289.0,-8.0,1734.0,-175.0,-161.0,-234.0
804.0,-108.0,-376.0,-22.0,1258.0,4.0,-157.0,-236.0
436.0,-95.0,-1914.0,-34.0,2178.0,168.0,472.0,-248.0
195.0,-72.0,-2151.0,-57.0,1083.0,-19.0,693.0,-256.0
-62.0,-21.0,-1419.0,-64.0,-1163.0,28.0,903.0,-268.0
-50.0,46.0,105.0,-78.0,-2010.0,107.0,571.0,-215.0
-117.0,24.0,2345.0,-81.0,-3066.0,78.0,-98.0,-141.0
-323.0,-3.0,2460.0,-134.0,-3456.0,193.0,-485.0,-26.0
-741.0,20.0,145.0,-149.0,-1098.0,141.0,-750.0,83.0
-700.0,40.0,-1517.0,-158.0,1638.0,64.0,-383.0,29.0
-413.0,73.0,-2639.0,-107.0,2443.0,6.0,-135.0,-62.0
-127.0,138.0,-2899.0,-73.0,3722.0,12.0,337.0,-13.0
168.0,139.0,-2398.0,-40.0,4000.0,-141.0,616.0,40.0
52.0,160.0,-1628.0,34.0,4000.0,-84.0,155.0,6.0
6.0,208.0,-1028.0,87.0,4000.0,228.0,-196.0,6.0
35.0,252.0,-328.0,84.0,4000.0,354.0,-268.0,44.0
-27.0,266.0,-34.0,-7.0,4000.0,268.0,-239.0,93.0
-19.0,173.0,-413.0,-3.0,4000.0,18.0,-132.0,88.0
-77.0,105.0,-364.0,75.0,4000.0,-50.0,-13.0,122.0
-123.0,37.0,-298.0,52.0,3983.0,36.0,303.0,169.0
-108.0,1.0,-35.0,-33.0,-436.0,308.0,620.0,117.0
-122.0,-159.0,361.0,-101.0,-2806.0,616.0,603.0,75.0
-245.0,-282.0,1068.0,-136.0,-4000.0,766.0,791.0,21.0
-392.0,-230.0,1414.0,-76.0,-4000.0,870.0,875.0,-80.0
-268.0,-125.0,937.0,-55.0,-4000.0,681.0,824.0,-142.0
-37.0,-24.0,866.0,-107.0,-4000.0,380.0,554.0,-207.0
67.0,-16.0,699.0,-101.0,-3256.0,278.0,283.0,-226.0
104.0,-21.0,968.0,-90.0,-883.0,203.0,273.0,-380.0
135.0,-59.0,988.0,-16.0,202.0,137.0,185.0,-508.0
169.0,-79.0,973.0,38.0,1136.0,272.0,433.0,-557.0
187.0,-85.0,2941.0,3.0,3085.0,270.0,858.0,-856.0
232.0,-22.0,4000.0,-9.0,2320.0,46.0,684.0,-996.0
166.0,10.0,4000.0,-51.0,3363.0,-157.0,352.0,-1241.0
48.0,33.0,2095.0,-85.0,4000.0,-293.0,604.0,-1590.0
26.0,92.0,-2692.0,-22.0,4000.0,-293.0,746.0,-1632.0
169.0,85.0,-4000.0,-6.0,4000.0,-268.0,494.0,-1469.0
253.0,113.0,-4000.0,-5.0,4000.0,-345.0,189.0,-1271.0
127.0,134.0,-4000.0,25.0,4000.0,-737.0,587.0,-862.0
98.0,111.0,-3136.0,91.0,4000.0,-940.0,759.0,-345.0
127.0,75.0,-1797.0,105.0,4000.0,-1005.0,563.0,50.0
43.0,87.0,630.0,35.0,4000.0,-1053.0,746.0,241.0
-11.0,131.0,2225.0,6.0,4000.0,-926.0,308.0,112.0
100.0,143.0,1965.0,2.0,4000.0,-940.0,-84.0,-90.0
131.0,113.0,169.0,51.0,-4000.0,-810.0,-161.0,-523.0
53.0,124.0,-2822.0,106.0,-4000.0,-598.0,-268.0,-1192.0
-108.0,125.0,-3540.0,179.0,-4000.0,-464.0,-101.0,-1921.0
-407.0,79.0,-2538.0,209.0,-4000.0,-371.0,53.0,-2283.0
-418.0,98.0,-1746.0,189.0,-4000.0,-208.0,9.0,-1725.0
-145.0,103.0,-702.0,112.0,-4000.0,-212.0,-79.0,-254.0
48.0,83.0,-373.0,-19.0,-4000.0,-456.0,-142.0,1454.0
285.0,22.0,-589.0,-107.0,-4000.0,-630.0,-273.0,2677.0
296.0,-17.0,-572.0,-177.0,-4000.0,-358.0,-346.0,3263.0
-67.0,-20.0,-481.0,-161.0,-4000.0,-16.0,-388.0,3393.0
95.0,-13.0,-1028.0,-129.0,-4000.0,29.0,-511.0,3275.0
798.0,-10.0,-110.0,-23.0,-4000.0,107.0,-555.0,2934.0
1130.0,-16.0,653.0,264.0,-4000.0,115.0,-570.0,2770.0
594.0,-22.0,606.0,199.0,-4000.0,172.0,-582.0,2966.0
63.0,4.0,573.0,-1.0,-2406.0,290.0,-573.0,3195.0
-272.0,40.0,474.0,-32.0,-1169.0,298.0,-542.0,3356.0
-712.0,30.0,858.0,-59.0,706.0,164.0,-507.0,3275.0
-850.0,33.0,1249.0,-5.0,3396.0,58.0,-458.0,2739.0
-896.0,-28.0,1184.0,12.0,3476.0,50.0,-424.0,2029.0
-807.0,-65.0,384.0,51.0,2032.0,14.0,-363.0,1595.0
-818.0,-86.0,-102.0,40.0,1344.0,-62.0,-331.0,1598.0
-756.0,-137.0,-442.0,-6.0,822.0,-182.0,-298.0,1977.0
-575.0,-143.0,-373.0,13.0,-1200.0,-11.0,-189.0,2445.0
-492.0,-142.0,-23.0,77.0,-411.0,367.0,-127.0,2901.0
-427.0,-103.0,492.0,52.0,2125.0,902.0,-126.0,3002.0
-308.0,-76.0,1387.0,-93.0,4000.0,1071.0,-209.0,2418.0
127.0,-79.0,2551.0,-165.0,4000.0,651.0,-261.0,1411.0
499.0,-114.0,2859.0,-208.0,4000.0,537.0,-279.0,341.0
603.0,-147.0,3174.0,-243.0,4000.0,321.0,-226.0,-687.0
705.0,-150.0,4000.0,-247.0,4000.0,237.0,-200.0,-1725.0
760.0,-138.0,4000.0,-220.0,4000.0,541.0,-182.0,-2848.0
716.0,-73.0,4000.0,-141.0,4000.0,675.0,-169.0,-3708.0
627.0,-51.0,3763.0,-103.0,4000.0,571.0,-157.0,-4000.0
525.0,-33.0,1029.0,-43.0,4000.0,365.0,-83.0,-4000.0
457.0,-39.0,-4000.0,63.0,4000.0,177.0,-44.0,-4000.0
371.0,-62.0,-3832.0,91.0,4000.0,143.0,-16.0,-4000.0
243.0,-64.0,-1492.0,4.0,3902.0,89.0,-9.0,-4000.0
134.0,-53.0,1299.0,2.0,3215.0,-72.0,15.0,-4000.0
119.0,33.0,4000.0,72.0,2231.0,-147.0,34.0,-4000.0
245.0,70.0,4000.0,101.0,1118.0,-240.0,2.0,-3841.0
361.0,73.0,4000.0,155.0,-604.0,-238.0,-7.0,-2244.0
-29.0,60.0,3885.0,104.0,-1795.0,-268.0,19.0,-254.0
-510.0,30.0,-4000.0,91.0,-2057.0,-269.0,53.0,1976.0
-441.0,42.0,-4000.0,107.0,-3950.0,-273.0,64.0,4000.0
-179.0,6.0,-4000.0,103.0,-4000.0,-378.0,65.0,4000.0
92.0,-10.0,-4000.0,199.0,-4000.0,-394.0,105.0,4000.0
86.0,-13.0,-4000.0,142.0,-4000.0,-394.0,109.0,4000.0
263.0,1.0,-4000.0,54.0,-4000.0,-358.0,102.0,4000.0
697.0,63.0,-4000.0,87.0,-3119.0,-398.0,97.0,4000.0
668.0,29.0,-4000.0,114.0,865.0,-245.0,42.0,4000.0
318.0,28.0,-4000.0,81.0,2189.0,107.0,61.0,4000.0
-327.0,52.0,-3225.0,-33.0,2813.0,310.0,-19.0,1793.0
-915.0,15.0,1491.0,-72.0,4000.0,243.0,-65.0,-658.0
-974.0,58.0,2811.0,-81.0,4000.0,162.0,-11.0,-1213.0
-779.0,34.0,663.0,-182.0,4000.0,149.0,-15.0,-1839.0
-584.0,-26.0,-2210.0,-401.0,4000.0,129.0,51.0,-2876.0
-625.0,10.0,-2216.0,-589.0,3281.0,196.0,76.0,-3995.0
-590.0,30.0,2194.0,-487.0,2035.0,220.0,102.0,-4000.0
-422.0,52.0,4000.0,-332.0,2502.0,246.0,124.0,-4000.0
-376.0,103.0,4000.0,-290.0,2160.0,315.0,95.0,-4000.0
-51.0,122.0,2082.0,-370.0,2160.0,425.0,107.0,-4000.0
378.0,111.0,-1388.0,-458.0,4000.0,471.0,109.0,-4000.0
382.0,85.0,-2511.0,-458.0,4000.0,441.0,105.0,-4000.0
9.0,103.0,3434.0,-487.0,4000.0,375.0,123.0,-4000.0
-247.0,83.0,4000.0,-446.0,4000.0,420.0,81.0,-4000.0
-227.0,37.0,4000.0,-433.0,4000.0,441.0,69.0,-4000.0
-142.0,37.0,4000.0,-478.0,4000.0,268.0,144.0,-4000.0
-278.0,30.0,4000.0,-527.0,4000.0,244.0,167.0,-3773.0
-217.0,38.0,4000.0,-305.0,4000.0,311.0,129.0,-4000.0
-39.0,52.0,-4000.0,110.0,4000.0,408.0,85.0,-4000.0
56.0,52.0,-4000.0,132.0,3790.0,445.0,101.0,-4000.0
371.0,21.0,-4000.0,-81.0,1669.0,376.0,85.0,-4000.0
517.0,-13.0,-4000.0,-136.0,-1649.0,243.0,15.0,-4000.0
373.0,-40.0,-4000.0,-132.0,-1528.0,-66.0,-25.0,-4000.0
277.0,-55.0,-1563.0,-122.0,2825.0,-262.0,-22.0,-4000.0
310.0,-52.0,-1878.0,183.0,4000.0,-378.0,-1.0,-4000.0
132.0,-26.0,-4000.0,335.0,4000.0,-507.0,67.0,-4000.0
-23.0,28.0,-4000.0,590.0,2035.0,-383.0,70.0,-2491.0
2.0,54.0,-4000.0,1021.0,-1097.0,-304.0,-30.0,-1111.0
55.0,87.0,-3998.0,1151.0,-4000.0,-249.0,-60.0,629.0
127.0,75.0,-938.0,1031.0,-4000.0,-205.0,-25.0,3600.0
233.0,22.0,-137.0,693.0,-4000.0,-194.0,-10.0,4000.0
334.0,58.0,3434.0,538.0,-4000.0,-102.0,38.0,4000.0
235.0,103.0,4000.0,459.0,-4000.0,-200.0,127.0,4000.0
165.0,128.0,4000.0,337.0,-4000.0,-275.0,197.0,4000.0
315.0,126.0,316.0,256.0,-4000.0,-417.0,225.0,4000.0
296.0,103.0,-1760.0,199.0,-4000.0,-510.0,193.0,4000.0
-17.0,99.0,1.0,295.0,-4000.0,-377.0,59.0,4000.0
-138.0,16.0,3871.0,439.0,-4000.0,-289.0,-76.0,4000.0
-236.0,-40.0,4000.0,243.0,-4000.0,-247.0,49.0,4000.0
-274.0,-72.0,4000.0,35.0,-4000.0,-267.0,286.0,4000.0
110.0,-94.0,4000.0,-23.0,-4000.0,-251.0,439.0,4000.0
631.0,-55.0,4000.0,-112.0,-4000.0,-177.0,616.0,4000.0
447.0,-7.0,4000.0,-119.0,-4000.0,-14.0,598.0,4000.0
-80.0,-2.0,3497.0,-168.0,-3262.0,114.0,425.0,4000.0
-219.0,5.0,4000.0,-267.0,-2018.0,84.0,272.0,4000.0
-498.0,37.0,4000.0,-332.0,-862.0,102.0,65.0,4000.0
-428.0,25.0,4000.0,-281.0,-1098.0,73.0,-68.0,4000.0
-282.0,12.0,2910.0,-332.0,-1052.0,23.0,-77.0,4000.0
-295.0,-13.0,2455.0,-462.0,-863.0,-47.0,-84.0,4000.0
-314.0,-20.0,4000.0,-568.0,-942.0,-133.0,-141.0,4000.0
-300.0,-65.0,4000.0,-684.0,-921.0,-151.0,-290.0,2689.0
-171.0,-141.0,4000.0,-724.0,-2029.0,-163.0,-399.0,1686.0
-209.0,-106.0,4000.0,-650.0,-1626.0,-203.0,-290.0,1006.0
-82.0,-97.0,-4000.0,-565.0,1136.0,-216.0,-187.0,1727.0
47.0,-131.0,-4000.0,-475.0,1601.0,-139.0,-138.0,1793.0
52.0,-151.0,-4000.0,-448.0,844.0,-116.0,-49.0,765.0
4.0,-174.0,-4000.0,-458.0,92.0,-91.0,-12.0,-883.0
243.0,-244.0,-3290.0,-417.0,-551.0,-43.0,19.0,-1709.0
573.0,-209.0,-4000.0,-421.0,-89.0,40.0,65.0,-2022.0
386.0,-122.0,-4000.0,-287.0,150.0,170.0,7.0,-2735.0
76.0,-165.0,-4000.0,22.0,458.0,271.0,-73.0,-3462.0
-15.0,-168.0,2539.0,368.0,706.0,327.0,32.0,-3809.0
179.0,-174.0,4000.0,590.0,681.0,341.0,362.0,-3345.0
183.0,-181.0,866.0,749.0,280.0,408.0,802.0,-3516.0
-258.0,-121.0,-4000.0,699.0,75.0,477.0,1092.0,-4000.0
-409.0,-15.0,-4000.0,533.0,-105.0,455.0,1019.0,-4000.0
-409.0,87.0,-2385.0,533.0,-242.0,415.0,533.0,-4000.0
121.0,84.0,-1398.0,482.0,-193.0,341.0,-33.0,-4000.0
1293.0,62.0,-4000.0,423.0,-109.0,203.0,-467.0,-4000.0
1222.0,113.0,-4000.0,236.0,522.0,-100.0,-587.0,-4000.0
651.0,135.0,2653.0,31.0,1460.0,-200.0,-379.0,-4000.0
524.0,70.0,4000.0,-160.0,2448.0,-72.0,-109.0,-4000.0
24.0,20.0,4000.0,-273.0,2819.0,-141.0,-108.0,-2930.0
-474.0,44.0,3575.0,-336.0,3008.0,-33.0,-310.0,-1826.0
-836.0,66.0,-672.0,-390.0,1279.0,28.0,-565.0,-2069.0
-850.0,25.0,-4000.0,-67.0,-2484.0,54.0,-837.0,-1921.0
-946.0,27.0,-4000.0,-4.0,-3380.0,207.0,-946.0,-1643.0
-880.0,33.0,-4000.0,-109.0,-1446.0,241.0,-946.0,-2101.0
-545.0,28.0,2159.0,-143.0,-126.0,237.0,-876.0,-2682.0
-761.0,127.0,4000.0,-429.0,1966.0,205.0,-1057.0,-2992.0
-1152.0,148.0,4000.0,-523.0,4000.0,200.0,-1441.0,-2415.0
-1195.0,131.0,-776.0,-445.0,3595.0,102.0,-1625.0,-2193.0
-1039.0,106.0,-2786.0,-253.0,2491.0,98.0,-1767.0,-2554.0
-966.0,36.0,-2835.0,-103.0,1722.0,167.0,-1813.0,-3020.0
-825.0,3.0,-4000.0,-152.0,1287.0,203.0,-1625.0,-3256.0
-497.0,23.0,-4000.0,-56.0,1521.0,202.0,-1507.0,-2806.0
-7.0,52.0,-2656.0,92.0,1482.0,140.0,-1423.0,-2166.0
155.0,43.0,-1406.0,242.0,1639.0,102.0,-1234.0,-2186.0
395.0,24.0,139.0,316.0,1656.0,42.0,-1246.0,-1707.0
660.0,8.0,-2306.0,220.0,1839.0,-45.0,-1076.0,-196.0
668.0,-24.0,-2819.0,257.0,1824.0,-182.0,-708.0,1066.0
725.0,-29.0,-1214.0,382.0,1573.0,-128.0,-101.0,2118.0
712.0,-20.0,1110.0,476.0,1183.0,-130.0,720.0,2380.0
608.0,-42.0,1770.0,459.0,794.0,-280.0,921.0,2415.0
416.0,-29.0,2989.0,268.0,1026.0,-313.0,571.0,2689.0
452.0,-18.0,4000.0,106.0,1247.0,-255.0,220.0,2377.0
473.0,-11.0,4000.0,-64.0,1329.0,-63.0,548.0,2107.0
433.0,28.0,2483.0,-167.0,1474.0,56.0,1205.0,2544.0
408.0,51.0,1704.0,39.0,1258.0,144.0,1787.0,3144.0
318.0,13.0,2018.0,238.0,431.0,209.0,1866.0,3356.0
322.0,21.0,2746.0,69.0,-158.0,329.0,1656.0,3404.0
241.0,31.0,4000.0,-57.0,-476.0,616.0,1605.0,3002.0
163.0,0.0,4000.0,84.0,-705.0,725.0,1314.0,2248.0
155.0,13.0,4000.0,431.0,-909.0,586.0,1084.0,1833.0
147.0,29.0,4000.0,699.0,-942.0,390.0,933.0,1456.0
97.0,82.0,4000.0,465.0,-924.0,135.0,738.0,947.0
129.0,38.0,2030.0,45.0,-1309.0,-133.0,673.0,605.0
235.0,10.0,-4000.0,-383.0,-1433.0,-184.0,667.0,654.0
353.0,16.0,-4000.0,-527.0,-1463.0,-169.0,779.0,1391.0
306.0,-55.0,-4000.0,-231.0,-1766.0,-216.0,832.0,1476.0
143.0,-67.0,-4000.0,-401.0,-1898.0,-262.0,866.0,530.0
16.0,-62.0,-4000.0,-747.0,-1689.0,-224.0,903.0,470.0
-76.0,-73.0,-4000.0,-453.0,-903.0,-247.0,1019.0,77.0
-140.0,-82.0,-4000.0,-232.0,119.0,-192.0,1194.0,-553.0
-197.0,-69.0,-4000.0,-437.0,778.0,-144.0,1288.0,-431.0
-97.0,-65.0,-4000.0,-520.0,1183.0,-200.0,1341.0,-818.0
-62.0,-89.0,-4000.0,-223.0,1409.0,94.0,1353.0,-748.0
-29.0,-127.0,-4000.0,10.0,1604.0,89.0,1522.0,-750.0
0.0,-127.0,-2847.0,-114.0,1836.0,-51.0,1605.0,-883.0
-58.0,-151.0,1703.0,-114.0,1865.0,28.0,1510.0,-818.0
-88.0,-139.0,4000.0,335.0,1839.0,16.0,1288.0,-852.0
-64.0,-97.0,2681.0,882.0,1904.0,217.0,1329.0,-953.0
-63.0,-51.0,492.0,1302.0,2113.0,425.0,1274.0,-1185.0
-96.0,-9.0,-162.0,1360.0,1930.0,537.0,1052.0,-1534.0
-120.0,-34.0,1184.0,699.0,1824.0,571.0,857.0,-1735.0
-148.0,25.0,2653.0,-67.0,2124.0,463.0,693.0,-1594.0
-166.0,76.0,3054.0,-409.0,1992.0,431.0,791.0,-1070.0
-321.0,70.0,3496.0,-745.0,1769.0,296.0,795.0,-653.0
-288.0,63.0,3267.0,-711.0,1865.0,101.0,457.0,-715.0
-79.0,41.0,3380.0,-81.0,1482.0,243.0,276.0,-165.0
-5.0,48.0,3137.0,98.0,373.0,262.0,13.0,442.0
-69.0,37.0,2924.0,196.0,-157.0,25.0,-332.0,165.0
-266.0,26.0,2924.0,655.0,82.0,-226.0,-703.0,-455.0
-348.0,41.0,2665.0,613.0,-217.0,-419.0,-1141.0,-775.0
-147.0,46.0,1322.0,-191.0,-734.0,-620.0,-1454.0,-1143.0
32.0,43.0,-229.0,-857.0,-681.0,-489.0,-1832.0,-1590.0
151.0,86.0,-409.0,-1480.0,-421.0,-95.0,-1979.0,-2122.0
325.0,85.0,-971.0,-1626.0,-727.0,68.0,-2221.0,-2347.0
395.0,66.0,-1321.0,-1266.0,-1333.0,-24.0,-2453.0,-2415.0
430.0,21.0,-2074.0,-1356.0,-1573.0,-334.0,-2549.0,-2395.0
71.0,-12.0,-1992.0,-502.0,-1455.0,-399.0,-2576.0,-1782.0
-311.0,-17.0,-1166.0,467.0,-1463.0,-423.0,-2158.0,-1235.0
-476.0,-28.0,-1864.0,687.0,-1609.0,-458.0,-2015.0,108.0
-242.0,-26.0,-2007.0,1034.0,-1383.0,-316.0,-2094.0,1156.0
241.0,10.0,-1484.0,1025.0,-1528.0,-245.0,-1783.0,1763.0
308.0,22.0,-841.0,467.0,-1703.0,-371.0,-1488.0,2689.0
382.0,14.0,-371.0,-391.0,-1534.0,-786.0,-1136.0,2742.0
56.0,14.0,-165.0,-1221.0,-1455.0,-1062.0,-769.0,2575.0
-388.0,24.0,-336.0,-1350.0,-999.0,-1304.0,-434.0,2705.0
-580.0,47.0,-560.0,-1023.0,-934.0,-1242.0,-63.0,3196.0
-419.0,37.0,-758.0,-984.0,-942.0,-924.0,-135.0,3662.0
-223.0,37.0,-753.0,-487.0,-1105.0,-1651.0,-104.0,3976.0
-250.0,11.0,-185.0,220.0,-942.0,-2142.0,-206.0,3458.0
-150.0,-46.0,507.0,630.0,-85.0,-873.0,-575.0,2078.0
-98.0,-8.0,-128.0,295.0,-39.0,-192.0,-780.0,1272.0
64.0,59.0,-2373.0,-702.0,-7.0,-810.0,-620.0,590.0
127.0,67.0,-3437.0,-1350.0,440.0,-514.0,132.0,83.0
128.0,40.0,-3409.0,-1201.0,876.0,432.0,759.0,556.0
183.0,-7.0,-3176.0,-963.0,887.0,506.0,824.0,914.0
220.0,-24.0,-2770.0,-1589.0,745.0,57.0,416.0,1142.0
192.0,-38.0,-1465.0,-3299.0,987.0,62.0,137.0,1337.0
108.0,-28.0,741.0,-3168.0,1352.0,324.0,286.0,1020.0
150.0,7.0,1965.0,-1370.0,1468.0,194.0,467.0,409.0
398.0,-1.0,1680.0,-1728.0,1222.0,-416.0,563.0,98.0
473.0,58.0,1703.0,563.0,967.0,-966.0,571.0,200.0
163.0,58.0,2472.0,3556.0,1579.0,-620.0,576.0,221.0
-116.0,24.0,2486.0,4000.0,2878.0,95.0,613.0,531.0
-160.0,-41.0,2989.0,4000.0,3772.0,738.0,571.0,817.0
-538.0,-149.0,3368.0,4000.0,4000.0,1018.0,637.0,961.0
-676.0,-199.0,2989.0,4000.0,4000.0,771.0,801.0,922.0
-143.0,-314.0,2848.0,4000.0,3982.0,693.0,838.0,863.0
-103.0,-310.0,2395.0,2347.0,4000.0,941.0,942.0,851.0
-16.0,-114.0,1509.0,204.0,4000.0,1521.0,1027.0,686.0
175.0,47.0,-343.0,-2843.0,3855.0,1864.0,1135.0,890.0
43.0,15.0,-1492.0,-3803.0,2378.0,1657.0,1158.0,896.0
28.0,-122.0,-1036.0,-3738.0,390.0,933.0,1164.0,677.0
-16.0,-228.0,-320.0,-2989.0,-1606.0,0.0,1288.0,544.0
176.0,-179.0,410.0,-2647.0,-4000.0,-729.0,1228.0,383.0
118.0,-80.0,606.0,-2261.0,-4000.0,-881.0,1064.0,-60.0
-229.0,-121.0,321.0,-1988.0,-4000.0,-676.0,921.0,-370.0
-386.0,-275.0,-85.0,-1813.0,-4000.0,161.0,622.0,-449.0
-150.0,-379.0,-879.0,-1643.0,-4000.0,1051.0,214.0,-643.0
186.0,-383.0,-1852.0,-1500.0,-4000.0,961.0,-338.0,-1453.0
316.0,-333.0,-2007.0,-1069.0,-4000.0,1163.0,-662.0,-3066.0
373.0,-240.0,-759.0,-589.0,-4000.0,628.0,-355.0,-4000.0
106.0,-158.0,-89.0,-249.0,-4000.0,-297.0,-41.0,-4000.0
-407.0,-65.0,-479.0,-136.0,-4000.0,-856.0,433.0,-4000.0
-637.0,-48.0,-1362.0,-9.0,-4000.0,-1526.0,1345.0,-4000.0
136.0,28.0,-1911.0,-589.0,-4000.0,-1570.0,1202.0,-4000.0
725.0,117.0,-1635.0,-641.0,-3642.0,-1047.0,628.0,-4000.0
462.0,205.0,-1701.0,-829.0,-2094.0,-204.0,791.0,-4000.0
-21.0,290.0,-1862.0,-1487.0,-443.0,336.0,871.0,-4000.0
-569.0,258.0,-1878.0,-1470.0,590.0,822.0,962.0,-4000.0
-268.0,321.0,1939.0,-1201.0,666.0,2031.0,1033.0,-4000.0
-33.0,338.0,4000.0,-1030.0,1443.0,3280.0,1078.0,-4000.0
198.0,290.0,541.0,-1200.0,2374.0,3835.0,909.0,-4000.0
263.0,254.0,-4000.0,-914.0,3410.0,4000.0,732.0,-4000.0
-66.0,248.0,-4000.0,-290.0,4000.0,4000.0,603.0,-3516.0
-8.0,254.0,-4000.0,352.0,4000.0,3677.0,470.0,-2747.0
-256.0,222.0,-2704.0,1053.0,4000.0,3705.0,576.0,-2682.0
-1365.0,200.0,695.0,2151.0,4000.0,3526.0,521.0,-1762.0
-3224.0,240.0,2859.0,3033.0,4000.0,3214.0,236.0,-28.0
-2220.0,319.0,1452.0,3194.0,4000.0,2939.0,-14.0,1651.0
443.0,316.0,996.0,3488.0,4000.0,2382.0,-104.0,3673.0
1569.0,288.0,2095.0,3694.0,4000.0,1539.0,-86.0,4000.0
2471.0,209.0,850.0,3668.0,4000.0,506.0,-82.0,4000.0
2256.0,179.0,2548.0,3495.0,4000.0,-273.0,-185.0,4000.0
1637.0,205.0,4000.0,3243.0,4000.0,-678.0,-565.0,3662.0
1085.0,182.0,4000.0,2543.0,3949.0,-835.0,-977.0,3291.0
668.0,212.0,-185.0,2517.0,3772.0,-881.0,-1199.0,2835.0
458.0,294.0,-4000.0,2530.0,3668.0,-1135.0,-1600.0,2380.0
-78.0,355.0,-3225.0,2139.0,3281.0,-1663.0,-2237.0,2042.0
-255.0,258.0,-1152.0,2062.0,2889.0,-1995.0,-3017.0,1663.0
-566.0,158.0,2460.0,1696.0,2556.0,-1912.0,-3171.0,1533.0
-655.0,200.0,4000.0,1631.0,2296.0,-1949.0,-2269.0,1793.0
-555.0,203.0,4000.0,1542.0,1865.0,-2219.0,-1206.0,1963.0
-609.0,212.0,4000.0,1210.0,1379.0,-2592.0,-613.0,2313.0
-616.0,200.0,-4000.0,891.0,896.0,-2854.0,-611.0,2042.0
-331.0,180.0,-4000.0,425.0,334.0,-2998.0,-1136.0,1598.0
-52.0,196.0,-4000.0,-149.0,15.0,-3209.0,-1599.0,1763.0
-29.0,163.0,-4000.0,-527.0,-332.0,-3518.0,-1819.0,1834.0
-7.0,136.0,-4000.0,-194.0,-717.0,-3659.0,-1832.0,1901.0
-43.0,120.0,-4000.0,-34.0,-970.0,-3441.0,-1822.0,1781.0
-78.0,96.0,-2578.0,-55.0,-1072.0,-3651.0,-1793.0,1753.0
-76.0,117.0,-1127.0,-219.0,-993.0,-3749.0,-1583.0,1436.0
-150.0,87.0,937.0,-414.0,-1056.0,-2932.0,-1422.0,912.0
-132.0,79.0,-1492.0,-232.0,-1292.0,-1701.0,-1291.0,825.0
-73.0,114.0,-1137.0,-351.0,-1423.0,-463.0,-1076.0,654.0
-98.0,95.0,-203.0,-293.0,-1756.0,415.0,-774.0,385.0
-40.0,84.0,996.0,-150.0,-2400.0,837.0,-603.0,522.0
90.0,47.0,2989.0,-107.0,-3018.0,1222.0,-401.0,414.0
202.0,33.0,3628.0,-145.0,-3343.0,1409.0,-273.0,296.0
235.0,-12.0,3445.0,-214.0,-3182.0,1390.0,-113.0,304.0
139.0,-67.0,3316.0,-114.0,-3456.0,1328.0,194.0,184.0
103.0,-94.0,3593.0,-291.0,-3539.0,1657.0,432.0,535.0
16.0,-122.0,4000.0,-228.0,-3315.0,2438.0,707.0,713.0
-85.0,-147.0,4000.0,33.0,-3456.0,1991.0,1202.0,629.0
-94.0,-149.0,3977.0,-119.0,-3132.0,628.0,1723.0,509.0
-38.0,-137.0,3885.0,-366.0,-2561.0,-312.0,1526.0,199.0
103.0,-152.0,3316.0,-371.0,-1768.0,-41.0,1519.0,-196.0
144.0,-179.0,3397.0,-388.0,-478.0,1214.0,1723.0,-453.0
269.0,-227.0,2978.0,-426.0,896.0,2060.0,1528.0,-692.0
296.0,-224.0,3096.0,-498.0,2060.0,1579.0,1510.0,-1018.0
-24.0,-220.0,2665.0,-574.0,3281.0,473.0,1840.0,-1404.0
-828.0,-194.0,2418.0,-589.0,4000.0,-247.0,2255.0,-1375.0
-1829.0,-199.0,2135.0,-660.0,4000.0,-227.0,2190.0,-932.0
-1298.0,-239.0,1874.0,-645.0,4000.0,368.0,1840.0,-679.0
-14.0,-253.0,1636.0,-633.0,4000.0,80.0,1705.0,-126.0
733.0,-244.0,937.0,-625.0,4000.0,-331.0,1800.0,196.0
888.0,-210.0,1033.0,-574.0,4000.0,-1441.0,1592.0,69.0
589.0,-218.0,1062.0,-540.0,4000.0,-1387.0,1189.0,11.0
293.0,-188.0,872.0,-527.0,4000.0,311.0,1125.0,-232.0
-271.0,-183.0,852.0,-523.0,4000.0,961.0,1293.0,-247.0
-228.0,-198.0,1178.0,-480.0,817.0,941.0,1467.0,-116.0
136.0,-216.0,787.0,-458.0,-3197.0,586.0,1164.0,-248.0
80.0,-282.0,179.0,-409.0,-4000.0,818.0,759.0,-354.0
-285.0,-240.0,-893.0,-376.0,-4000.0,241.0,331.0,-427.0
-233.0,-174.0,-1852.0,-370.0,-4000.0,-1047.0,227.0,-608.0
28.0,-163.0,-538.0,-266.0,-1609.0,-1737.0,380.0,-685.0
-64.0,-110.0,1094.0,-106.0,-383.0,-2185.0,510.0,-729.0
-21.0,-117.0,1098.0,37.0,1657.0,-2660.0,543.0,-622.0
-116.0,-143.0,425.0,533.0,2019.0,-2998.0,311.0,-145.0
-105.0,-142.0,-238.0,1227.0,1148.0,-2797.0,136.0,341.0
-40.0,-110.0,-283.0,674.0,171.0,-2575.0,-154.0,216.0
-102.0,-49.0,-259.0,-444.0,-1520.0,-2608.0,-643.0,-91.0
-647.0,-58.0,-190.0,-1027.0,-2953.0,-2608.0,-1054.0,243.0
-1105.0,-49.0,-153.0,-1589.0,-3001.0,-2451.0,-1123.0,255.0
-1146.0,-41.0,-532.0,-1819.0,-3119.0,-2156.0,-750.0,29.0
-1885.0,-42.0,-324.0,-1860.0,-3586.0,-1764.0,23.0,141.0
-280.0,19.0,-255.0,-1539.0,-4000.0,-1518.0,309.0,-362.0
2158.0,-36.0,-651.0,-1297.0,-4000.0,-1200.0,-130.0,-1235.0
2483.0,-87.0,-393.0,-979.0,-3379.0,-783.0,-555.0,-1774.0
2597.0,-33.0,923.0,-680.0,-2664.0,-289.0,-639.0,-2179.0
1237.0,-88.0,2001.0,-659.0,-3185.0,225.0,42.0,-2427.0
257.0,-128.0,1249.0,-505.0,-4000.0,706.0,1098.0,-2062.0
-154.0,-128.0,467.0,-654.0,-4000.0,1279.0,1510.0,-1191.0
-451.0,-93.0,-320.0,-618.0,-4000.0,1854.0,1214.0,-775.0
-375.0,2.0,-1427.0,-485.0,-4000.0,2425.0,726.0,-392.0
-111.0,66.0,-2085.0,-195.0,-4000.0,2840.0,319.0,-389.0
-16.0,103.0,-2559.0,115.0,-3988.0,3202.0,172.0,-948.0
-779.0,175.0,-2413.0,171.0,-4000.0,3409.0,35.0,-818.0
-371.0,256.0,-2888.0,287.0,-4000.0,3474.0,-127.0,-1200.0
-388.0,294.0,-3602.0,451.0,-3443.0,3491.0,-338.0,-1626.0
-679.0,290.0,-3266.0,598.0,-3001.0,3526.0,-371.0,-1856.0
-664.0,260.0,-1732.0,590.0,-2063.0,3460.0,-332.0,-2100.0
-779.0,241.0,-193.0,740.0,-1766.0,3200.0,-342.0,-1904.0
-632.0,225.0,280.0,699.0,-704.0,2682.0,-314.0,-1606.0
-645.0,253.0,-589.0,425.0,801.0,2355.0,-342.0,-1115.0
-510.0,240.0,-792.0,337.0,1083.0,2295.0,-550.0,-804.0
-445.0,213.0,130.0,317.0,1918.0,2363.0,-802.0,-427.0
-256.0,222.0,988.0,264.0,2241.0,2490.0,-946.0,28.0
249.0,217.0,2330.0,166.0,3346.0,2164.0,-1162.0,686.0
908.0,262.0,1562.0,104.0,3127.0,1722.0,-1291.0,1468.0
1081.0,278.0,113.0,81.0,3085.0,1547.0,-1533.0,2419.0
493.0,248.0,-519.0,99.0,4000.0,1380.0,-1728.0,3600.0
220.0,170.0,-814.0,101.0,4000.0,1344.0,-1749.0,4000.0
235.0,132.0,-132.0,103.0,4000.0,1644.0,-1914.0,4000.0
68.0,125.0,299.0,142.0,4000.0,1669.0,-2121.0,4000.0
144.0,77.0,560.0,97.0,4000.0,1258.0,-2146.0,4000.0
296.0,73.0,-310.0,28.0,4000.0,152.0,-1884.0,4000.0
346.0,44.0,-1484.0,83.0,3725.0,-1103.0,-1497.0,4000.0
215.0,8.0,-1041.0,199.0,3595.0,-1647.0,-1291.0,4000.0
15.0,-29.0,-374.0,197.0,4000.0,-1444.0,-1250.0,4000.0
-209.0,-47.0,-434.0,130.0,4000.0,-177.0,-1254.0,3522.0
-339.0,-63.0,183.0,23.0,4000.0,701.0,-1291.0,2819.0
-201.0,-44.0,533.0,-44.0,4000.0,145.0,-1264.0,2357.0
-129.0,48.0,872.0,-45.0,2581.0,-657.0,-1193.0,2054.0
-46.0,52.0,1197.0,12.0,2189.0,-733.0,-986.0,1728.0
80.0,33.0,663.0,37.0,1907.0,-394.0,-792.0,1053.0
204.0,-45.0,498.0,-114.0,1768.0,-255.0,-685.0,74.0
174.0,-85.0,459.0,-151.0,1800.0,-308.0,-615.0,-953.0
150.0,-78.0,567.0,-148.0,1134.0,-318.0,-530.0,-1998.0
104.0,-125.0,663.0,-146.0,171.0,-214.0,-274.0,-2747.0
36.0,-128.0,872.0,-112.0,-704.0,-308.0,-224.0,-3007.0
56.0,-136.0,878.0,-133.0,-1007.0,-331.0,-146.0,-3089.0
66.0,-163.0,657.0,-148.0,-1320.0,-501.0,181.0,-3007.0
89.0,-174.0,533.0,-129.0,-659.0,-672.0,346.0,-2812.0
82.0,-181.0,311.0,-84.0,542.0,-651.0,368.0,-2741.0
106.0,-178.0,200.0,-100.0,1669.0,-598.0,506.0,-2617.0
77.0,-188.0,15.0,-131.0,2451.0,-449.0,620.0,-2615.0
110.0,-209.0,-36.0,-125.0,2124.0,-352.0,494.0,-2927.0
150.0,-188.0,-96.0,-129.0,1601.0,-213.0,427.0,-3397.0
104.0,-139.0,-38.0,-124.0,1053.0,-182.0,497.0,-3862.0
50.0,-165.0,89.0,-162.0,1201.0,-146.0,661.0,-4000.0
55.0,-170.0,133.0,-137.0,2374.0,-268.0,782.0,-4000.0
36.0,-149.0,-120.0,-48.0,3401.0,-436.0,693.0,-4000.0
80.0,-150.0,-688.0,-20.0,3399.0,-638.0,571.0,-3923.0
166.0,-120.0,-802.0,12.0,2317.0,-945.0,622.0,-3318.0
162.0,-103.0,-605.0,27.0,1292.0,-1265.0,832.0,-2412.0
151.0,-47.0,-507.0,26.0,1466.0,-1633.0,838.0,-1461.0
132.0,-43.0,-512.0,26.0,2124.0,-1850.0,889.0,-1126.0
127.0,-68.0,-315.0,22.0,1734.0,-1995.0,1052.0,-1204.0
118.0,-25.0,-274.0,4.0,606.0,-1961.0,1084.0,-427.0
90.0,-59.0,-545.0,-14.0,-2.0,-1916.0,1060.0,848.0
80.0,-46.0,-438.0,-40.0,-473.0,-2008.0,930.0,1195.0
74.0,-43.0,-125.0,-61.0,-838.0,-1989.0,934.0,788.0
211.0,-51.0,-70.0,-56.0,56.0,-1961.0,889.0,399.0
412.0,-16.0,55.0,-62.0,701.0,-2025.0,897.0,-54.0
725.0,-5.0,72.0,-44.0,666.0,-1912.0,948.0,-618.0
1189.0,19.0,43.0,-55.0,490.0,-1682.0,927.0,-870.0
1189.0,14.0,42.0,-65.0,-77.0,-1447.0,889.0,-758.0
725.0,-5.0,-252.0,-7.0,320.0,-1183.0,858.0,13.0
303.0,-52.0,-478.0,15.0,-110.0,-1140.0,883.0,1012.0
220.0,-91.0,-434.0,34.0,-1012.0,-1257.0,791.0,1651.0
-288.0,-72.0,-173.0,101.0,-712.0,-1505.0,753.0,1895.0
-931.0,-84.0,-133.0,84.0,-791.0,-1663.0,832.0,1818.0
-1296.0,-67.0,-328.0,59.0,-978.0,-1636.0,878.0,1859.0
-1351.0,-71.0,-364.0,45.0,-1267.0,-1511.0,877.0,1924.0
-1006.0,-59.0,134.0,38.0,-1817.0,-1441.0,871.0,2183.0
-1201.0,-65.0,474.0,84.0,-2676.0,-1487.0,832.0,2348.0
-1495.0,-96.0,134.0,144.0,-3661.0,-1316.0,767.0,2054.0
-1474.0,-71.0,-98.0,129.0,-4000.0,-1135.0,628.0,1651.0
-1298.0,-18.0,28.0,84.0,-4000.0,-881.0,455.0,1122.0
-1233.0,55.0,325.0,179.0,-4000.0,-790.0,394.0,1000.0
-850.0,43.0,590.0,130.0,-4000.0,-770.0,294.0,1065.0
-303.0,79.0,611.0,-40.0,-4000.0,-639.0,229.0,903.0
180.0,152.0,-454.0,-200.0,-4000.0,-409.0,203.0,967.0
381.0,156.0,-1219.0,-336.0,-4000.0,-113.0,90.0,798.0
310.0,125.0,-442.0,-206.0,-4000.0,15.0,44.0,874.0
353.0,67.0,150.0,10.0,-4000.0,293.0,34.0,1052.0
330.0,55.0,248.0,-61.0,-4000.0,734.0,-16.0,1004.0
430.0,36.0,54.0,-163.0,-4000.0,1227.0,-72.0,853.0
994.0,30.0,-258.0,-190.0,-4000.0,1657.0,-88.0,282.0
1476.0,42.0,-833.0,-258.0,-4000.0,1919.0,-143.0,-221.0
954.0,14.0,-886.0,-198.0,-4000.0,2224.0,-195.0,-489.0
452.0,36.0,-124.0,-123.0,-4000.0,2515.0,-187.0,-549.0
-60.0,-62.0,-52.0,-45.0,-3148.0,2577.0,-176.0,-620.0
-515.0,-106.0,11.0,6.0,-2611.0,2710.0,-202.0,-602.0
-142.0,41.0,89.0,10.0,-4000.0,2877.0,-244.0,-415.0
-209.0,117.0,76.0,42.0,-4000.0,2629.0,-294.0,-333.0
-319.0,164.0,238.0,34.0,-4000.0,2580.0,-316.0,-267.0
-232.0,135.0,-36.0,-65.0,-4000.0,2824.0,-245.0,-79.0
-360.0,90.0,55.0,-88.0,-4000.0,3528.0,-197.0,-8.0
-288.0,99.0,295.0,10.0,2386.0,3604.0,-134.0,-62.0
-379.0,-10.0,256.0,1.0,4000.0,2645.0,-36.0,276.0
-443.0,-79.0,246.0,-13.0,4000.0,2512.0,4.0,528.0
-327.0,1.0,258.0,-21.0,3867.0,2645.0,-11.0,143.0
-159.0,120.0,218.0,3.0,3476.0,2568.0,-14.0,-232.0
-135.0,200.0,253.0,7.0,2825.0,2306.0,44.0,-415.0
15.0,160.0,200.0,-20.0,2035.0,1666.0,81.0,-354.0
194.0,45.0,166.0,10.0,1918.0,673.0,107.0,-207.0
238.0,-33.0,318.0,-1.0,2060.0,-550.0,56.0,-162.0
338.0,-14.0,266.0,12.0,2569.0,-1727.0,-37.0,-122.0
314.0,30.0,-10.0,-30.0,3679.0,-2738.0,-47.0,-256.0
357.0,29.0,-230.0,-146.0,3733.0,-3600.0,-113.0,-330.0
315.0,-10.0,-137.0,-178.0,3202.0,-4000.0,-189.0,-352.0
334.0,-1.0,-44.0,-122.0,1222.0,-4000.0,-208.0,-274.0
338.0,29.0,-129.0,-83.0,196.0,-4000.0,-151.0,-117.0
249.0,28.0,-111.0,-16.0,-222.0,-3685.0,-120.0,70.0
187.0,44.0,-91.0,28.0,-751.0,-3117.0,-33.0,401.0
187.0,16.0,-203.0,48.0,208.0,-2509.0,54.0,601.0
154.0,52.0,-105.0,101.0,1227.0,-1850.0,-33.0,612.0
66.0,94.0,180.0,114.0,2036.0,-1322.0,-71.0,484.0
111.0,102.0,92.0,103.0,2889.0,-716.0,-101.0,324.0
71.0,114.0,-290.0,109.0,2695.0,-71.0,-141.0,201.0
90.0,112.0,-476.0,142.0,947.0,738.0,-136.0,80.0
102.0,105.0,-383.0,168.0,831.0,1312.0,-84.0,-206.0
184.0,53.0,-230.0,138.0,635.0,1580.0,-28.0,-245.0
363.0,63.0,-59.0,133.0,190.0,1901.0,-76.0,1.0
961.0,98.0,15.0,115.0,1840.0,2254.0,-98.0,249.0
1737.0,85.0,63.0,77.0,2578.0,2308.0,-224.0,564.0
1429.0,64.0,-36.0,37.0,3020.0,2159.0,-298.0,716.0
762.0,30.0,-76.0,-8.0,4000.0,2099.0,-161.0,751.0
180.0,0.0,-20.0,-29.0,4000.0,1929.0,78.0,1012.0
-318.0,-37.0,-183.0,-77.0,4000.0,1669.0,191.0,1329.0
-505.0,-86.0,-188.0,-98.0,4000.0,1572.0,84.0,1264.0
-1105.0,-81.0,0.0,-131.0,4000.0,1531.0,-163.0,1026.0
-1365.0,-77.0,153.0,-162.0,4000.0,1527.0,-267.0,1053.0
-1457.0,-63.0,280.0,-110.0,4000.0,1344.0,-167.0,1272.0
-1521.0,-30.0,512.0,-99.0,4000.0,998.0,-95.0,1338.0
-1271.0,-39.0,708.0,-81.0,4000.0,766.0,37.0,1533.0
-1096.0,-59.0,787.0,-65.0,4000.0,608.0,-109.0,1792.0
-720.0,-32.0,828.0,-72.0,4000.0,506.0,-384.0,2118.0
-331.0,72.0,598.0,-37.0,3529.0,467.0,-620.0,2300.0
-193.0,67.0,236.0,-26.0,3150.0,380.0,-745.0,1964.0
44.0,41.0,296.0,5.0,2630.0,248.0,-680.0,1399.0
175.0,24.0,736.0,33.0,1733.0,102.0,-652.0,136.0
212.0,-31.0,931.0,28.0,837.0,48.0,-412.0,-1148.0
263.0,-46.0,1119.0,116.0,790.0,58.0,-308.0,-2114.0
262.0,-67.0,1249.0,181.0,509.0,-5.0,-313.0,-2583.0
391.0,-85.0,828.0,110.0,273.0,-10.0,-156.0,-2584.0
369.0,-126.0,201.0,99.0,340.0,81.0,-94.0,-2519.0
399.0,-130.0,-29.0,137.0,-39.0,103.0,-161.0,-2375.0
371.0,-125.0,114.0,128.0,-631.0,61.0,-349.0,-2244.0
313.0,-145.0,42.0,130.0,-245.0,43.0,-353.0,-2071.0
285.0,-101.0,431.0,103.0,672.0,-27.0,-363.0,-1841.0
216.0,-71.0,866.0,56.0,1207.0,-120.0,-542.0,-1449.0
204.0,-65.0,728.0,56.0,1601.0,-304.0,-428.0,-1274.0
170.0,-27.0,1088.0,56.0,1786.0,-593.0,-313.0,-1180.0
161.0,-33.0,1053.0,19.0,1533.0,-940.0,-185.0,-1043.0
113.0,-15.0,296.0,64.0,1397.0,-1263.0,189.0,-1204.0
105.0,5.0,29.0,85.0,1918.0,-1440.0,593.0,-1194.0
77.0,16.0,-212.0,42.0,2943.0,-1652.0,726.0,-1105.0
72.0,30.0,-1036.0,-2.0,4000.0,-1701.0,707.0,-913.0
69.0,11.0,-957.0,-63.0,4000.0,-1396.0,812.0,-798.0
73.0,17.0,150.0,-36.0,4000.0,-1050.0,860.0,-730.0
85.0,12.0,-169.0,29.0,4000.0,-639.0,785.0,-427.0
66.0,36.0,-1171.0,60.0,4000.0,-304.0,685.0,-262.0
61.0,57.0,-1279.0,10.0,4000.0,-66.0,669.0,-130.0
265.0,72.0,-1085.0,-2.0,4000.0,220.0,619.0,-118.0
758.0,73.0,-702.0,28.0,-131.0,341.0,457.0,-49.0
1091.0,75.0,-458.0,-47.0,-4000.0,180.0,315.0,308.0
1246.0,98.0,-763.0,-54.0,-4000.0,-20.0,217.0,434.0
1051.0,52.0,-1153.0,-37.0,-4000.0,-306.0,189.0,279.0
790.0,33.0,-625.0,-62.0,-4000.0,-582.0,169.0,247.0
648.0,50.0,-1.0,-49.0,-4000.0,-779.0,152.0,438.0
705.0,46.0,-277.0,-5.0,-4000.0,-816.0,142.0,361.0
1254.0,33.0,-291.0,-11.0,-4000.0,-750.0,81.0,87.0
2715.0,33.0,-259.0,-8.0,-4000.0,-810.0,20.0,136.0
3694.0,-12.0,-238.0,145.0,-4000.0,-780.0,37.0,235.0
863.0,-23.0,48.0,366.0,-4000.0,-656.0,-1.0,236.0
-1698.0,-26.0,246.0,292.0,-4000.0,-546.0,-44.0,188.0
-2944.0,-23.0,297.0,-98.0,-3312.0,-582.0,35.0,-10.0
-3889.0,-14.0,-138.0,-265.0,-189.0,-750.0,25.0,-188.0
-3636.0,-10.0,-702.0,-381.0,1018.0,-796.0,14.0,-370.0
-3687.0,16.0,-416.0,-441.0,2748.0,-623.0,23.0,-435.0
-2903.0,27.0,425.0,-351.0,3150.0,-401.0,80.0,-353.0
-2323.0,117.0,606.0,-241.0,3902.0,-136.0,111.0,-268.0
-1856.0,147.0,546.0,-134.0,3267.0,374.0,152.0,-1.0
-1227.0,120.0,463.0,-100.0,3102.0,888.0,158.0,264.0
745.0,114.0,231.0,-61.0,4000.0,1344.0,81.0,629.0
1441.0,143.0,-425.0,-6.0,4000.0,1852.0,93.0,1012.0
183.0,182.0,-976.0,50.0,4000.0,2177.0,61.0,1248.0
-207.0,99.0,-912.0,92.0,4000.0,2375.0,37.0,1371.0
-1286.0,56.0,-776.0,95.0,4000.0,2385.0,34.0,1411.0
-1634.0,84.0,-541.0,28.0,3334.0,2177.0,-10.0,1533.0
-1642.0,50.0,-498.0,-23.0,2189.0,1994.0,-98.0,1216.0
-1365.0,-8.0,-534.0,-18.0,725.0,1787.0,-117.0,677.0
-777.0,28.0,-702.0,-69.0,-203.0,1340.0,-121.0,426.0
-518.0,0.0,-1013.0,-128.0,-10.0,1006.0,-111.0,727.0
-203.0,-46.0,-776.0,-146.0,403.0,687.0,-22.0,1134.0
-201.0,-26.0,-511.0,-119.0,666.0,225.0,-12.0,1384.0
24.0,-97.0,-440.0,-107.0,1323.0,-116.0,-30.0,1781.0
447.0,-129.0,142.0,8.0,1604.0,-123.0,-47.0,1688.0
1038.0,-108.0,719.0,211.0,880.0,-419.0,-29.0,1586.0
1051.0,-69.0,914.0,207.0,-152.0,-932.0,-17.0,1373.0
1194.0,-21.0,654.0,107.0,-665.0,-1096.0,-23.0,961.0
1546.0,2.0,187.0,90.0,-1072.0,-1056.0,-25.0,1069.0
1441.0,-41.0,72.0,107.0,-2224.0,-966.0,-4.0,695.0
1362.0,-74.0,260.0,150.0,-3066.0,-802.0,27.0,-114.0
1226.0,-77.0,372.0,81.0,-3445.0,-620.0,0.0,-610.0
1130.0,-101.0,364.0,56.0,-2953.0,-591.0,-56.0,-1050.0
1091.0,-55.0,461.0,84.0,-2777.0,-519.0,-72.0,-1514.0
1240.0,-30.0,517.0,72.0,-3445.0,-459.0,-74.0,-1078.0
2092.0,-10.0,449.0,109.0,-4000.0,-499.0,-120.0,-842.0
2728.0,-23.0,254.0,-6.0,-4000.0,-607.0,-167.0,-1018.0
1411.0,-21.0,241.0,-118.0,-4000.0,-657.0,-200.0,-738.0
144.0,2.0,89.0,-159.0,-4000.0,-790.0,-188.0,-993.0
-288.0,-12.0,7.0,-136.0,-4000.0,-1107.0,-193.0,-1404.0
-631.0,71.0,11.0,-101.0,-3988.0,-1196.0,-193.0,-1790.0
-118.0,60.0,31.0,-106.0,-3923.0,-1198.0,-154.0,-1894.0
847.0,17.0,168.0,-59.0,-4000.0,-1265.0,-198.0,-1064.0
1872.0,64.0,150.0,-71.0,-4000.0,-1177.0,-241.0,-840.0
1962.0,8.0,152.0,-81.0,-4000.0,-770.0,-194.0,-659.0
3759.0,-103.0,0.0,-115.0,-4000.0,-620.0,-151.0,-248.0
4000.0,-223.0,-151.0,-124.0,-3995.0,-802.0,-152.0,-137.0
2874.0,-248.0,-226.0,-71.0,-4000.0,-810.0,-147.0,-297.0
-309.0,-156.0,-258.0,-15.0,-4000.0,-816.0,-82.0,-651.0
-4000.0,-77.0,-123.0,47.0,-3835.0,-838.0,-74.0,-843.0
-4000.0,-39.0,-179.0,27.0,-1272.0,-594.0,-43.0,-1274.0
-4000.0,-4.0,-480.0,-38.0,1117.0,-8.0,24.0,-1310.0
-3835.0,64.0,-585.0,-16.0,2386.0,628.0,39.0,-1274.0
-1752.0,48.0,-454.0,88.0,3215.0,732.0,20.0,-1192.0
209.0,51.0,-440.0,157.0,4000.0,514.0,-16.0,-1235.0
1897.0,95.0,-354.0,158.0,4000.0,541.0,-50.0,-1018.0
686.0,103.0,-133.0,122.0,4000.0,532.0,-155.0,-456.0
-966.0,128.0,195.0,124.0,4000.0,602.0,-285.0,-7.0
-1772.0,59.0,722.0,198.0,4000.0,766.0,-384.0,590.0
-1019.0,117.0,878.0,187.0,4000.0,693.0,-322.0,666.0
-331.0,298.0,598.0,54.0,4000.0,687.0,-139.0,695.0
673.0,256.0,438.0,43.0,4000.0,713.0,-298.0,692.0
1104.0,152.0,304.0,-49.0,4000.0,725.0,-445.0,739.0
-566.0,69.0,213.0,-119.0,4000.0,766.0,-346.0,825.0
-647.0,-84.0,280.0,-79.0,4000.0,771.0,-233.0,932.0
-1416.0,-167.0,137.0,-233.0,4000.0,701.0,-55.0,1118.0
-2043.0,-188.0,26.0,-328.0,4000.0,716.0,-129.0,1012.0
-2474.0,-143.0,-133.0,-372.0,4000.0,667.0,-138.0,922.0
-1951.0,-196.0,-257.0,-271.0,4000.0,563.0,-134.0,612.0
-1685.0,-199.0,-151.0,-75.0,4000.0,473.0,-101.0,355.0
-2322.0,15.0,-209.0,-45.0,4000.0,368.0,-9.0,222.0
-1801.0,187.0,30.0,-10.0,4000.0,358.0,67.0,80.0
-346.0,238.0,533.0,-1.0,4000.0,325.0,207.0,-5.0
4000.0,168.0,801.0,-43.0,4000.0,297.0,235.0,-140.0
4000.0,156.0,402.0,-130.0,4000.0,213.0,336.0,-96.0
1311.0,225.0,-107.0,-96.0,4000.0,123.0,380.0,-74.0
-2061.0,199.0,-186.0,-71.0,3982.0,135.0,427.0,22.0
-1853.0,156.0,-229.0,-75.0,3167.0,81.0,457.0,100.0
-1261.0,21.0,-24.0,-44.0,2516.0,-175.0,427.0,126.0
-309.0,-193.0,308.0,-79.0,1800.0,-419.0,481.0,264.0
1282.0,-171.0,683.0,-64.0,1123.0,-594.0,506.0,276.0
3443.0,-106.0,1028.0,-62.0,485.0,-678.0,439.0,275.0
2389.0,-102.0,-2.0,-38.0,133.0,-615.0,336.0,408.0
340.0,-104.0,-1683.0,-9.0,-215.0,-597.0,276.0,261.0
-51.0,-179.0,-1862.0,-23.0,-637.0,-594.0,156.0,-246.0
-1537.0,-171.0,-997.0,-48.0,-1381.0,-663.0,86.0,-362.0
-323.0,-118.0,-552.0,-110.0,-2318.0,-802.0,54.0,-370.0
1737.0,-26.0,-358.0,-50.0,-2887.0,-1075.0,26.0,-753.0
1051.0,90.0,-385.0,41.0,-3132.0,-1652.0,38.0,-1170.0
436.0,6.0,-709.0,3.0,-2794.0,-1995.0,33.0,-1820.0
-1066.0,-43.0,-801.0,-33.0,-2729.0,-2041.0,103.0,-1735.0
-670.0,-40.0,-562.0,4.0,-2977.0,-2079.0,160.0,-875.0
509.0,17.0,119.0,-32.0,-3120.0,-1961.0,120.0,-748.0
-392.0,91.0,577.0,-71.0,-4000.0,-1688.0,101.0,-622.0
-1735.0,-4.0,878.0,-31.0,-4000.0,-1248.0,138.0,-78.0
-2748.0,-40.0,1039.0,-65.0,-4000.0,-672.0,213.0,-10.0
-1915.0,-85.0,850.0,-87.0,-4000.0,-32.0,256.0,102.0
133.0,-80.0,988.0,-89.0,-4000.0,570.0,197.0,196.0
3778.0,34.0,1224.0,-78.0,-4000.0,1033.0,194.0,62.0
4000.0,125.0,1159.0,30.0,-4000.0,1395.0,294.0,255.0
4000.0,87.0,850.0,187.0,-4000.0,1710.0,341.0,360.0
2744.0,-83.0,476.0,341.0,-4000.0,1842.0,303.0,580.0
1372.0,-118.0,266.0,377.0,-4000.0,1734.0,280.0,608.0
-2137.0,-122.0,12.0,298.0,-4000.0,1759.0,309.0,459.0
-1735.0,-159.0,-47.0,276.0,-4000.0,1691.0,291.0,491.0
-2628.0,-114.0,141.0,310.0,-4000.0,2254.0,274.0,825.0
-3360.0,-91.0,59.0,309.0,-3752.0,3070.0,234.0,1201.0
-3424.0,-65.0,-79.0,323.0,-991.0,3036.0,328.0,1272.0
-2968.0,40.0,-239.0,307.0,-409.0,2425.0,498.0,1476.0
-1206.0,105.0,-350.0,386.0,-1398.0,1722.0,433.0,1403.0
1869.0,86.0,-167.0,512.0,-1207.0,1468.0,269.0,1403.0
4000.0,-26.0,-237.0,442.0,-596.0,1182.0,56.0,1502.0
1937.0,-13.0,-357.0,336.0,245.0,745.0,-263.0,1533.0
-4000.0,96.0,-375.0,327.0,961.0,338.0,-1104.0,1598.0
-4000.0,205.0,-566.0,276.0,792.0,4.0,-3106.0,1521.0
-4000.0,347.0,-535.0,99.0,562.0,-161.0,-4000.0,1392.0
-3097.0,241.0,-669.0,-336.0,400.0,-258.0,-4000.0,1502.0
-649.0,147.0,-1101.0,-833.0,399.0,-251.0,-4000.0,1698.0
-40.0,172.0,-1134.0,-776.0,466.0,-85.0,-4000.0,1456.0
1319.0,213.0,-622.0,-455.0,-76.0,-54.0,-4000.0,1142.0
986.0,222.0,-347.0,-462.0,-559.0,-204.0,-1533.0,914.0
-784.0,124.0,8.0,-384.0,-593.0,-130.0,838.0,863.0
-1801.0,115.0,309.0,-379.0,-566.0,-65.0,3103.0,860.0
-974.0,144.0,205.0,-574.0,-418.0,-138.0,4000.0,765.0
508.0,130.0,234.0,-639.0,338.0,-273.0,4000.0,677.0
1475.0,58.0,154.0,-690.0,672.0,-232.0,4000.0,348.0
1281.0,-33.0,207.0,-719.0,619.0,-116.0,4000.0,5.0
1365.0,-142.0,172.0,-704.0,397.0,-129.0,4000.0,-60.0
1702.0,-176.0,28.0,-621.0,-862.0,-5.0,4000.0,95.0
2458.0,-114.0,215.0,-503.0,-2452.0,145.0,4000.0,239.0
2480.0,-148.0,278.0,-311.0,-3442.0,160.0,4000.0,409.0
1637.0,-147.0,284.0,-119.0,-2777.0,172.0,3661.0,390.0
2648.0,-130.0,439.0,77.0,-2065.0,179.0,2696.0,355.0
4000.0,-127.0,441.0,146.0,-2147.0,94.0,1854.0,361.0
4000.0,-178.0,293.0,160.0,-384.0,-82.0,1202.0,188.0
4000.0,-223.0,147.0,210.0,1983.0,-331.0,685.0,-53.0
4000.0,-157.0,-20.0,205.0,1722.0,-435.0,191.0,-305.0
-413.0,-142.0,35.0,233.0,837.0,-453.0,-482.0,-553.0
-2060.0,-171.0,-9.0,223.0,1032.0,-317.0,-933.0,-644.0
-979.0,-195.0,-226.0,305.0,789.0,-259.0,-1388.0,-627.0
-637.0,-176.0,-373.0,425.0,947.0,-459.0,-1851.0,-659.0
-1352.0,-111.0,-476.0,472.0,1118.0,-266.0,-2339.0,-693.0
-2345.0,-92.0,-363.0,583.0,1405.0,-104.0,-2776.0,-803.0
-2637.0,-133.0,-113.0,574.0,1865.0,-82.0,-2951.0,-866.0
-4000.0,-81.0,61.0,400.0,2177.0,-385.0,-2483.0,-875.0
-4000.0,-50.0,60.0,255.0,2425.0,-786.0,-1813.0,-846.0
-4000.0,-89.0,119.0,65.0,1279.0,-790.0,-1635.0,-724.0
-4000.0,193.0,-16.0,-13.0,373.0,-751.0,-1507.0,-534.0
-2708.0,412.0,-187.0,-39.0,607.0,-472.0,-1397.0,-401.0
-1560.0,391.0,-245.0,-211.0,967.0,-394.0,-1308.0,-360.0
424.0,266.0,-403.0,-259.0,1395.0,-306.0,-1055.0,-317.0
1702.0,60.0,-239.0,-191.0,877.0,-332.0,-737.0,-248.0
1832.0,33.0,16.0,-165.0,804.0,-392.0,-436.0,-274.0
2092.0,135.0,110.0,-134.0,147.0,-224.0,-262.0,-540.0
2809.0,92.0,-128.0,-100.0,-3197.0,-14.0,-273.0,-758.0
1307.0,-95.0,-282.0,-90.0,-4000.0,223.0,191.0,-862.0
-698.0,-134.0,-255.0,-30.0,-4000.0,203.0,1345.0,-990.0
-620.0,-68.0,-484.0,-3.0,-4000.0,33.0,1902.0,-1005.0
-177.0,-19.0,-561.0,-66.0,-883.0,271.0,1333.0,-908.0
-84.0,9.0,-503.0,-98.0,933.0,766.0,441.0,-883.0
-497.0,-23.0,-245.0,144.0,4000.0,812.0,-355.0,-928.0
1124.0,49.0,15.0,373.0,4000.0,673.0,-826.0,-1046.0
4000.0,103.0,349.0,303.0,4000.0,380.0,-1012.0,-948.0
4000.0,50.0,582.0,242.0,3855.0,380.0,-1819.0,-846.0
4000.0,6.0,402.0,190.0,2513.0,480.0,-2302.0,-866.0
4000.0,-83.0,345.0,75.0,2124.0,380.0,-1801.0,-804.0
4000.0,-149.0,447.0,-44.0,1669.0,-11.0,-685.0,-791.0
-2309.0,-47.0,400.0,-136.0,1213.0,-852.0,311.0,-734.0
-4000.0,6.0,296.0,-113.0,859.0,-976.0,989.0,-679.0
-4000.0,5.0,446.0,-178.0,562.0,-607.0,732.0,-577.0
-2920.0,57.0,384.0,-167.0,493.0,-190.0,-235.0,-590.0
-2285.0,34.0,85.0,-131.0,245.0,-37.0,-1291.0,-659.0
-1752.0,52.0,-157.0,-137.0,-70.0,-394.0,-1271.0,-602.0
1237.0,58.0,-381.0,-114.0,-356.0,-485.0,-658.0,-523.0
4000.0,-15.0,-328.0,-208.0,-277.0,-108.0,-2092.0,-297.0
4000.0,-71.0,-328.0,-177.0,-434.0,15.0,-2107.0,-13.0
2415.0,-18.0,-369.0,-152.0,-341.0,-371.0,-1051.0,197.0
2648.0,111.0,-255.0,-178.0,-333.0,-676.0,779.0,267.0
-2433.0,71.0,-245.0,-163.0,-653.0,-881.0,4000.0,210.0
-4000.0,-17.0,-228.0,-187.0,-459.0,-810.0,4000.0,163.0
-4000.0,-4.0,-31.0,-123.0,-339.0,-88.0,2505.0,8.0
-4000.0,179.0,533.0,-55.0,-268.0,66.0,989.0,-87.0
-4000.0,323.0,837.0,-163.0,-478.0,98.0,2190.0,12.0
-4000.0,193.0,654.0,-263.0,-659.0,329.0,745.0,83.0
-4000.0,149.0,996.0,-336.0,-341.0,43.0,-3390.0,130.0
-4000.0,200.0,1178.0,-344.0,-80.0,66.0,-3302.0,174.0
-3619.0,30.0,728.0,-342.0,83.0,204.0,-2817.0,188.0
-771.0,-39.0,27.0,-293.0,-168.0,-151.0,-3752.0,360.0
1259.0,-54.0,-180.0,-80.0,-135.0,115.0,-2675.0,831.0
2276.0,-14.0,67.0,-46.0,618.0,386.0,-1605.0,1183.0
3171.0,139.0,75.0,1.0,1417.0,-2.0,1033.0,1091.0
3770.0,82.0,-45.0,-7.0,1733.0,343.0,4000.0,1392.0
2080.0,-4.0,-682.0,-8.0,902.0,358.0,4000.0,1403.0
-461.0,-40.0,-563.0,168.0,-212.0,-198.0,2696.0,1069.0
530.0,-43.0,177.0,207.0,-616.0,-58.0,-2610.0,1012.0
1384.0,-220.0,582.0,238.0,-665.0,280.0,-3922.0,913.0
2614.0,-310.0,1094.0,250.0,-551.0,771.0,-1848.0,1065.0
2922.0,-199.0,1517.0,236.0,-551.0,1795.0,-1249.0,938.0
2976.0,-105.0,467.0,233.0,-869.0,1189.0,3860.0,547.0
2857.0,44.0,-882.0,270.0,-1398.0,354.0,4000.0,-182.0
1938.0,-24.0,-1237.0,329.0,-1689.0,888.0,3477.0,-1206.0
2350.0,-161.0,-1427.0,341.0,-1885.0,-250.0,-1878.0,-1904.0
2196.0,-216.0,-827.0,362.0,-2160.0,-2209.0,-3516.0,-2253.0
2650.0,-236.0,-473.0,382.0,-2277.0,-2481.0,-2405.0,-2024.0
2518.0,-190.0,-160.0,447.0,-2650.0,-1847.0,-4000.0,-1709.0
2597.0,-172.0,-205.0,428.0,-2870.0,-932.0,-4000.0,-1430.0
1962.0,-82.0,-820.0,269.0,-2660.0,-867.0,-2064.0,-1143.0
1368.0,-42.0,-841.0,142.0,-2212.0,-1047.0,-465.0,-1143.0
1606.0,-27.0,-759.0,23.0,-1626.0,-202.0,-2663.0,-1274.0
1150.0,41.0,-52.0,-133.0,-1117.0,542.0,-3654.0,-1390.0
1743.0,-11.0,830.0,-234.0,-614.0,557.0,2322.0,-1050.0
2024.0,-26.0,1163.0,-301.0,345.0,237.0,4000.0,-508.0
3249.0,-49.0,879.0,-344.0,778.0,758.0,3607.0,-195.0
4000.0,-23.0,-237.0,-437.0,823.0,1693.0,4000.0,19.0
1820.0,46.0,-1538.0,-365.0,1405.0,1799.0,4000.0,8.0
-1007.0,82.0,-1914.0,-200.0,1254.0,296.0,2452.0,-232.0
422.0,164.0,-1427.0,-113.0,819.0,-115.0,-1551.0,-297.0
4000.0,129.0,-403.0,90.0,406.0,-252.0,-448.0,-370.0
3712.0,99.0,361.0,164.0,-122.0,-685.0,2379.0,-447.0
-523.0,70.0,923.0,109.0,-209.0,628.0,684.0,-358.0
-1984.0,12.0,1053.0,115.0,-274.0,576.0,-4000.0,-269.0
-1131.0,70.0,1062.0,99.0,-203.0,404.0,-4000.0,629.0
689.0,228.0,1680.0,-80.0,310.0,177.0,-3993.0,1895.0
4000.0,494.0,1936.0,-187.0,310.0,214.0,-4000.0,2314.0
4000.0,621.0,1822.0,-233.0,15.0,-44.0,20.0,2172.0
-4000.0,556.0,433.0,-212.0,302.0,-1096.0,3689.0,2054.0
-4000.0,374.0,-645.0,-109.0,531.0,-985.0,4000.0,2051.0
-4000.0,215.0,-747.0,-146.0,469.0,-958.0,4000.0,1663.0
-4000.0,262.0,-976.0,-175.0,194.0,-550.0,4000.0,1085.0
293.0,205.0,105.0,-86.0,-282.0,-678.0,4000.0,531.0
-1866.0,-63.0,1314.0,134.0,-400.0,-184.0,-2092.0,61.0
-3915.0,-318.0,716.0,85.0,-177.0,738.0,-3603.0,-334.0
-2968.0,-333.0,-271.0,-132.0,140.0,-262.0,-876.0,-527.0
-4000.0,-179.0,-234.0,-258.0,288.0,-2366.0,-355.0,-586.0
-4000.0,-196.0,-300.0,-136.0,328.0,-2341.0,-2121.0,-599.0
-1351.0,-225.0,-799.0,-3.0,672.0,-450.0,-1128.0,-622.0
3957.0,-113.0,-948.0,90.0,719.0,817.0,1866.0,-590.0
2353.0,102.0,-688.0,168.0,110.0,1409.0,-410.0,-539.0
-714.0,138.0,-66.0,146.0,-437.0,2555.0,-4000.0,-577.0
495.0,-5.0,12.0,222.0,-508.0,2645.0,-4000.0,-366.0
4000.0,-53.0,-107.0,52.0,-311.0,191.0,-2465.0,224.0
4000.0,74.0,1045.0,-66.0,-457.0,-2479.0,303.0,1142.0
2549.0,83.0,1550.0,-71.0,-288.0,-2054.0,1605.0,1769.0
3443.0,22.0,1835.0,-133.0,683.0,822.0,3984.0,2314.0
4000.0,4.0,2394.0,-75.0,940.0,987.0,4000.0,2941.0
2809.0,33.0,455.0,37.0,1063.0,870.0,4000.0,3275.0
-4000.0,17.0,-1362.0,69.0,1323.0,805.0,2811.0,3662.0
-4000.0,-201.0,-2704.0,62.0,1258.0,396.0,1164.0,4000.0
-4000.0,-247.0,-3160.0,102.0,1222.0,-596.0,184.0,4000.0
-4000.0,-207.0,-2418.0,59.0,1443.0,-1359.0,-333.0,4000.0
-1769.0,-75.0,-2303.0,-73.0,2019.0,373.0,-333.0,4000.0
-1031.0,-51.0,-1279.0,-162.0,2190.0,953.0,897.0,4000.0
-2155.0,-114.0,-1193.0,-10.0,1722.0,719.0,3205.0,4000.0
60.0,-55.0,-1258.0,94.0,701.0,953.0,3465.0,3656.0
4000.0,-149.0,-585.0,-15.0,348.0,1059.0,1996.0,-105.0
4000.0,-304.0,-153.0,6.0,713.0,837.0,-433.0,-4000.0
4000.0,-314.0,-100.0,115.0,1189.0,608.0,-4000.0,-4000.0
4000.0,-328.0,-954.0,36.0,1865.0,497.0,-4000.0,-4000.0
4000.0,-293.0,-892.0,-136.0,2100.0,961.0,-4000.0,-4000.0
2857.0,-179.0,-283.0,-157.0,1775.0,1474.0,-4000.0,-4000.0
1671.0,-166.0,244.0,-107.0,1333.0,1518.0,-4000.0,-4000.0
3647.0,-100.0,2030.0,-79.0,1091.0,1591.0,-882.0,-4000.0
1558.0,-226.0,4000.0,-84.0,918.0,1547.0,4000.0,-4000.0
-2545.0,-253.0,4000.0,-177.0,654.0,1204.0,3773.0,-1803.0
-4000.0,-40.0,2395.0,-244.0,-47.0,175.0,2582.0,-169.0
-4000.0,105.0,-2835.0,-185.0,-853.0,-810.0,2291.0,1045.0
-2098.0,347.0,-4000.0,-44.0,-1324.0,-1251.0,2102.0,2302.0
47.0,254.0,-3866.0,12.0,-2340.0,-1379.0,608.0,3261.0
-1585.0,189.0,-2435.0,-5.0,-3262.0,-1248.0,303.0,3943.0
-4000.0,241.0,-1484.0,-37.0,-3642.0,-988.0,903.0,4000.0
-4000.0,150.0,-226.0,-78.0,-3379.0,-727.0,767.0,4000.0
-2454.0,225.0,1152.0,-80.0,-2924.0,-390.0,1149.0,4000.0
-1837.0,254.0,1192.0,-119.0,-2794.0,-464.0,838.0,4000.0
-1152.0,258.0,910.0,40.0,-2537.0,-485.0,939.0,4000.0
1559.0,217.0,64.0,187.0,-2139.0,-448.0,681.0,4000.0
2974.0,341.0,-847.0,345.0,-1649.0,-548.0,702.0,4000.0
2157.0,621.0,764.0,472.0,-1207.0,-485.0,-149.0,3198.0
2453.0,566.0,4000.0,152.0,-673.0,-481.0,-1030.0,2302.0
4000.0,82.0,3757.0,-11.0,-177.0,-358.0,-1076.0,1568.0
4000.0,-360.0,20.0,-69.0,612.0,-331.0,-876.0,583.0
4000.0,-483.0,-1158.0,-115.0,1704.0,-255.0,-267.0,-215.0
4000.0,-631.0,-1347.0,49.0,2646.0,-212.0,-224.0,-940.0
-836.0,-705.0,-2689.0,85.0,3464.0,-133.0,-113.0,-1672.0
-1984.0,-793.0,-2899.0,56.0,4000.0,51.0,33.0,-2100.0
-4000.0,-700.0,-1227.0,-22.0,4000.0,64.0,504.0,-2147.0
-2049.0,-271.0,2018.0,45.0,4000.0,143.0,439.0,-1951.0
-4000.0,87.0,2027.0,133.0,4000.0,229.0,336.0,-1803.0
-4000.0,485.0,-320.0,65.0,4000.0,326.0,587.0,-1707.0
-4000.0,607.0,-10.0,132.0,4000.0,364.0,749.0,-1774.0
-4000.0,200.0,3369.0,146.0,4000.0,259.0,883.0,-2128.0
-3872.0,311.0,4000.0,24.0,4000.0,274.0,539.0,-2536.0
2781.0,542.0,2600.0,25.0,4000.0,300.0,197.0,-2694.0
4000.0,53.0,-257.0,47.0,4000.0,217.0,228.0,-2682.0
4000.0,-479.0,-727.0,15.0,4000.0,126.0,441.0,-2759.0
2393.0,-965.0,-912.0,-70.0,4000.0,30.0,470.0,-2812.0
-1457.0,-757.0,2277.0,-175.0,4000.0,-57.0,723.0,-2800.0
-4000.0,-435.0,4000.0,-210.0,4000.0,-310.0,1548.0,-2682.0
-4000.0,-356.0,2130.0,-309.0,3916.0,-521.0,1908.0,-2518.0
-2256.0,343.0,-3997.0,-409.0,3332.0,-283.0,1444.0,-2347.0
-470.0,882.0,-4000.0,-429.0,2425.0,-159.0,1402.0,-2180.0
595.0,1051.0,-4000.0,-260.0,1148.0,-43.0,1800.0,-1888.0
2393.0,1116.0,-3213.0,-191.0,-352.0,225.0,1866.0,-1404.0
1938.0,1187.0,-1944.0,-214.0,-1918.0,168.0,1837.0,-909.0
4000.0,1234.0,-1427.0,-157.0,-3521.0,69.0,1418.0,-301.0
4000.0,1396.0,-997.0,-256.0,-4000.0,-19.0,380.0,117.0
3871.0,1374.0,-971.0,-162.0,-4000.0,40.0,-169.0,170.0
2728.0,837.0,-1022.0,31.0,-4000.0,61.0,-729.0,-70.0
4000.0,239.0,-616.0,195.0,-4000.0,-61.0,-1952.0,-236.0
4000.0,-468.0,2030.0,227.0,-4000.0,-24.0,-2158.0,-614.0
4000.0,-809.0,2811.0,84.0,-4000.0,-9.0,-1917.0,-1070.0
2219.0,-952.0,573.0,75.0,-4000.0,-133.0,-2343.0,-254.0
-1235.0,-1212.0,-1795.0,-8.0,-4000.0,-77.0,-2186.0,471.0
-2372.0,-1324.0,-1797.0,-38.0,-4000.0,267.0,-1887.0,601.0
-4000.0,-1204.0,-811.0,-6.0,-4000.0,571.0,-2064.0,825.0
-4000.0,-595.0,-328.0,-78.0,-4000.0,693.0,-1699.0,811.0
-4000.0,-42.0,571.0,-21.0,-4000.0,589.0,-1271.0,853.0
-1532.0,248.0,1965.0,11.0,-4000.0,693.0,-1358.0,499.0
322.0,347.0,2224.0,-49.0,-4000.0,1344.0,-1128.0,853.0
768.0,489.0,1452.0,-118.0,-4000.0,1626.0,-811.0,1846.0
1755.0,-12.0,1045.0,-45.0,-3838.0,1279.0,-555.0,3651.0
2809.0,-1135.0,-128.0,22.0,-3604.0,1344.0,36.0,4000.0
4000.0,-1337.0,111.0,-14.0,-2857.0,1451.0,455.0,4000.0
3265.0,-1116.0,439.0,18.0,-1381.0,1352.0,477.0,4000.0
3234.0,-1090.0,-707.0,57.0,-12.0,2373.0,352.0,3144.0
1791.0,-952.0,-1339.0,116.0,811.0,3731.0,265.0,1532.0
668.0,-550.0,-927.0,157.0,1525.0,3539.0,571.0,547.0
1611.0,-139.0,-429.0,168.0,2113.0,1639.0,889.0,-1330.0
784.0,313.0,-102.0,207.0,2760.0,-1422.0,1006.0,-3333.0
330.0,836.0,333.0,165.0,3204.0,-4000.0,1019.0,-3527.0
509.0,1323.0,514.0,116.0,3281.0,-4000.0,897.0,-980.0
919.0,1735.0,107.0,99.0,3541.0,-4000.0,877.0,1272.0
640.0,1883.0,-147.0,99.0,3493.0,-4000.0,995.0,3263.0
-710.0,1778.0,-160.0,142.0,3464.0,-4000.0,1098.0,4000.0
-1605.0,933.0,-350.0,104.0,3399.0,-4000.0,1137.0,988.0
-1769.0,-330.0,-30.0,95.0,3334.0,-4000.0,954.0,-622.0
-1912.0,-1025.0,-93.0,99.0,3269.0,-4000.0,730.0,-2362.0
-1781.0,-1192.0,290.0,189.0,3139.0,-4000.0,714.0,-3127.0
-850.0,-1155.0,663.0,345.0,3085.0,1539.0,948.0,249.0
-29.0,-810.0,736.0,307.0,2878.0,4000.0,1098.0,4000.0
-7.0,6.0,757.0,150.0,2569.0,4000.0,930.0,4000.0
11.0,839.0,507.0,-91.0,2354.0,4000.0,877.0,4000.0
-368.0,982.0,410.0,-271.0,2448.0,4000.0,954.0,4000.0
-1495.0,-37.0,98.0,-301.0,2441.0,4000.0,995.0,4000.0
-1950.0,-662.0,215.0,-279.0,2178.0,4000.0,832.0,2154.0
-1105.0,-765.0,325.0,-163.0,1930.0,4000.0,668.0,-3842.0
-145.0,-1025.0,577.0,-47.0,1539.0,4000.0,590.0,-4000.0
248.0,-866.0,546.0,40.0,373.0,1398.0,290.0,-4000.0
226.0,-790.0,508.0,8.0,-991.0,-1701.0,154.0,-4000.0
683.0,-677.0,655.0,-23.0,-1671.0,-1054.0,49.0,-4000.0
1169.0,-1076.0,179.0,-48.0,-2094.0,1205.0,-253.0,-4000.0
779.0,-1005.0,-180.0,19.0,-2340.0,3817.0,-442.0,-4000.0
371.0,-671.0,-503.0,92.0,-2676.0,4000.0,-565.0,-4000.0
132.0,-716.0,-955.0,47.0,-2818.0,4000.0,-642.0,-4000.0
-150.0,-558.0,-841.0,65.0,-2676.0,3199.0,-707.0,-4000.0
-470.0,-793.0,-334.0,113.0,-2318.0,1852.0,-769.0,-1655.0
-1039.0,-1030.0,-438.0,106.0,-1552.0,1247.0,-672.0,4000.0
-1283.0,-1073.0,-802.0,-46.0,-1247.0,933.0,-456.0,4000.0
-361.0,-432.0,-694.0,-84.0,-1595.0,1003.0,-418.0,4000.0
505.0,418.0,-772.0,-113.0,-2016.0,823.0,-514.0,4000.0
683.0,889.0,-645.0,-173.0,-2550.0,86.0,-635.0,2484.0
269.0,631.0,-542.0,-155.0,-3701.0,-923.0,-717.0,-2218.0
-616.0,395.0,-576.0,-143.0,-4000.0,-1375.0,-701.0,-4000.0
131.0,1128.0,-20.0,-48.0,-4000.0,-2451.0,-565.0,-4000.0
-301.0,2103.0,137.0,4.0,-4000.0,-4000.0,-261.0,-2346.0
-3087.0,1488.0,421.0,59.0,-4000.0,-4000.0,-86.0,1207.0
-3009.0,197.0,872.0,90.0,-4000.0,-3913.0,78.0,4000.0
-2256.0,-190.0,701.0,4.0,-4000.0,-3442.0,199.0,4000.0
-1762.0,-939.0,1053.0,-94.0,-4000.0,-3308.0,217.0,4000.0
896.0,-1218.0,1704.0,-153.0,-4000.0,-2509.0,178.0,4000.0
1429.0,-1546.0,1053.0,-168.0,-4000.0,-1734.0,-114.0,4000.0
1283.0,-1141.0,-336.0,-87.0,-4000.0,-1290.0,-306.0,4000.0
2728.0,-198.0,-379.0,-65.0,-4000.0,-783.0,-280.0,4000.0
3591.0,-513.0,189.0,-93.0,-4000.0,-474.0,-247.0,4000.0
4000.0,-959.0,-177.0,-44.0,-4000.0,-535.0,-397.0,4000.0
4000.0,-753.0,-698.0,32.0,-3014.0,-565.0,-477.0,4000.0
4000.0,-887.0,-847.0,32.0,-1012.0,-221.0,-320.0,4000.0
4000.0,-1051.0,-812.0,-27.0,725.0,-179.0,-247.0,3654.0
-609.0,-122.0,-442.0,28.0,2255.0,-582.0,-290.0,3202.0
-3836.0,508.0,-486.0,93.0,3606.0,-838.0,-440.0,2510.0
-2570.0,404.0,-222.0,99.0,4000.0,-743.0,-594.0,2550.0
2480.0,176.0,153.0,127.0,4000.0,-991.0,-846.0,2118.0
1897.0,-145.0,345.0,91.0,4000.0,-1166.0,-1136.0,2348.0
-4000.0,-29.0,719.0,11.0,4000.0,-519.0,-1136.0,2248.0
-4000.0,837.0,45.0,-37.0,4000.0,-115.0,-711.0,2357.0
-4000.0,737.0,-568.0,-71.0,4000.0,-875.0,-283.0,2575.0
-2486.0,355.0,-651.0,-143.0,4000.0,-1511.0,-327.0,2237.0
-4000.0,347.0,-425.0,-175.0,4000.0,-1056.0,-751.0,2029.0
-4000.0,672.0,-59.0,-185.0,4000.0,-352.0,-1587.0,1533.0
-2372.0,1571.0,238.0,-154.0,4000.0,107.0,-1914.0,1324.0
1085.0,1818.0,903.0,0.0,4000.0,538.0,-762.0,831.0
4000.0,1896.0,1664.0,7.0,4000.0,831.0,1059.0,266.0
-974.0,1553.0,2016.0,-77.0,4000.0,1401.0,2179.0,-40.0
-4000.0,1506.0,1674.0,-66.0,4000.0,1009.0,1628.0,-620.0
-2075.0,1843.0,764.0,-115.0,4000.0,-50.0,331.0,-1495.0
-1038.0,1961.0,-64.0,-101.0,4000.0,22.0,-27.0,-1691.0
3236.0,2287.0,-154.0,-32.0,4000.0,-51.0,-159.0,-1461.0
3981.0,2397.0,-782.0,-15.0,-2145.0,415.0,-192.0,-1429.0
1299.0,2039.0,-1541.0,17.0,-4000.0,734.0,-50.0,-1279.0
-3734.0,1778.0,-937.0,59.0,-4000.0,469.0,220.0,-1234.0
-3424.0,1898.0,-436.0,39.0,-4000.0,532.0,871.0,-1180.0
-2593.0,1713.0,-1063.0,-64.0,-4000.0,303.0,1027.0,-1449.0
-2112.0,1461.0,-1600.0,-126.0,-4000.0,106.0,934.0,-1788.0
2014.0,1323.0,-1297.0,-75.0,-4000.0,-419.0,687.0,-1998.0
1091.0,1201.0,-898.0,45.0,-4000.0,-611.0,254.0,-2558.0
-497.0,1029.0,-454.0,16.0,-4000.0,-474.0,38.0,-3191.0
-620.0,702.0,-314.0,-91.0,-4000.0,-240.0,-28.0,-3007.0
464.0,460.0,172.0,-30.0,-4000.0,619.0,-59.0,-2295.0
798.0,142.0,621.0,28.0,-4000.0,1071.0,-214.0,-1957.0
2287.0,94.0,491.0,-45.0,-4000.0,947.0,-224.0,-1888.0
2222.0,12.0,280.0,-69.0,-4000.0,944.0,-247.0,-1774.0
595.0,-241.0,42.0,-102.0,-2316.0,586.0,-294.0,-1256.0
1737.0,-405.0,186.0,-179.0,213.0,368.0,-326.0,-1039.0
1934.0,-379.0,354.0,-198.0,3916.0,331.0,-595.0,-1261.0
863.0,-365.0,389.0,-175.0,4000.0,289.0,-946.0,-1143.0
-473.0,-458.0,439.0,-120.0,4000.0,196.0,-985.0,-1083.0
-136.0,-509.0,541.0,-63.0,4000.0,-54.0,-326.0,-781.0
660.0,-619.0,492.0,-29.0,4000.0,-20.0,376.0,-518.0
825.0,-665.0,272.0,4.0,4000.0,-83.0,759.0,-395.0
896.0,-684.0,202.0,55.0,4000.0,-33.0,673.0,-288.0
460.0,-633.0,280.0,124.0,4000.0,32.0,246.0,-280.0
381.0,-670.0,361.0,150.0,4000.0,37.0,208.0,-232.0
733.0,-765.0,559.0,115.0,4000.0,110.0,248.0,-146.0
1189.0,-866.0,923.0,106.0,4000.0,73.0,107.0,-37.0
1095.0,-960.0,903.0,134.0,4000.0,76.0,171.0,-19.0
1254.0,-1011.0,349.0,134.0,4000.0,107.0,133.0,-3.0
1307.0,-1127.0,461.0,167.0,4000.0,172.0,24.0,-79.0
1108.0,-1197.0,891.0,203.0,4000.0,170.0,-3.0,-207.0
1384.0,-1074.0,376.0,134.0,4000.0,166.0,34.0,-344.0
1311.0,-830.0,307.0,6.0,3281.0,88.0,65.0,-446.0
725.0,-920.0,207.0,-31.0,2225.0,86.0,-23.0,-527.0
-36.0,-1135.0,-230.0,-27.0,1539.0,49.0,80.0,-685.0
281.0,-1155.0,-311.0,-95.0,1627.0,-67.0,297.0,-759.0
790.0,-1090.0,-661.0,-107.0,692.0,-76.0,311.0,-484.0
1116.0,-1017.0,28.0,-38.0,-1383.0,-65.0,225.0,409.0
1085.0,-1090.0,476.0,-44.0,-2550.0,88.0,303.0,1281.0
603.0,-1216.0,42.0,-136.0,-3663.0,25.0,335.0,1411.0
249.0,-1247.0,-71.0,-81.0,-4000.0,-49.0,368.0,1468.0
-319.0,-1310.0,-4.0,-87.0,-4000.0,17.0,329.0,1574.0
-625.0,-1328.0,508.0,-112.0,-4000.0,80.0,227.0,1346.0
-828.0,-1203.0,-512.0,-38.0,-4000.0,113.0,341.0,1395.0
-883.0,-1141.0,-1557.0,-98.0,-4000.0,29.0,346.0,1247.0
-974.0,-1008.0,-2202.0,-84.0,-4000.0,15.0,303.0,474.0
-974.0,-895.0,-2542.0,-56.0,-4000.0,79.0,334.0,-671.0
-893.0,-804.0,-2276.0,12.0,-4000.0,191.0,403.0,-846.0
-749.0,-677.0,-1982.0,-41.0,-3327.0,146.0,429.0,336.0
-641.0,-606.0,-1166.0,20.0,-2341.0,113.0,497.0,1924.0
-553.0,-461.0,-761.0,161.0,-2860.0,123.0,608.0,2118.0
-424.0,-413.0,-101.0,122.0,-2496.0,104.0,637.0,456.0
-392.0,-365.0,463.0,78.0,-2187.0,143.0,681.0,-1671.0
-476.0,-169.0,1119.0,-50.0,-2274.0,119.0,557.0,-4000.0
-844.0,-56.0,1452.0,-44.0,-2484.0,118.0,451.0,-4000.0
-880.0,67.0,1704.0,-93.0,-2386.0,73.0,693.0,-4000.0
-844.0,162.0,813.0,-170.0,-2029.0,89.0,725.0,-3889.0
-719.0,233.0,-698.0,-187.0,-1488.0,51.0,433.0,-2536.0
-647.0,411.0,-892.0,-128.0,-413.0,-24.0,563.0,172.0
-544.0,460.0,-828.0,-33.0,953.0,-17.0,472.0,2418.0
-396.0,438.0,-158.0,-130.0,2776.0,-39.0,216.0,2118.0
-534.0,537.0,-24.0,-100.0,4000.0,12.0,179.0,1156.0
-513.0,621.0,172.0,-123.0,4000.0,86.0,-146.0,955.0
-523.0,737.0,202.0,-145.0,4000.0,143.0,-565.0,556.0
-288.0,761.0,-162.0,-50.0,4000.0,81.0,-750.0,1437.0
-73.0,737.0,-1.0,-46.0,4000.0,34.0,-781.0,2183.0
-254.0,774.0,663.0,23.0,4000.0,67.0,-711.0,2029.0
-482.0,751.0,1107.0,113.0,2842.0,48.0,-546.0,2054.0
-821.0,781.0,741.0,99.0,1443.0,17.0,-464.0,1932.0
-1039.0,796.0,828.0,-21.0,-99.0,19.0,-597.0,2054.0
-1000.0,758.0,828.0,-62.0,-1455.0,22.0,-456.0,2284.0
-1025.0,659.0,728.0,-2.0,-3066.0,15.0,714.0,3014.0
-883.0,615.0,507.0,7.0,-3752.0,-9.0,1539.0,3766.0
-560.0,550.0,319.0,29.0,-3767.0,-21.0,1098.0,3996.0
-217.0,489.0,229.0,29.0,-4000.0,22.0,571.0,3766.0
253.0,514.0,577.0,36.0,-3995.0,17.0,103.0,2314.0
758.0,489.0,1283.0,-5.0,-3963.0,42.0,-258.0,1150.0
1104.0,522.0,1053.0,-55.0,-4000.0,66.0,-189.0,1411.0
733.0,418.0,175.0,-69.0,-4000.0,24.0,50.0,1337.0
296.0,269.0,-432.0,-65.0,-4000.0,9.0,-59.0,-209.0
330.0,264.0,-159.0,27.0,-4000.0,64.0,-338.0,-2872.0
222.0,260.0,140.0,61.0,-4000.0,102.0,-441.0,-4000.0
100.0,222.0,-88.0,129.0,-4000.0,106.0,-355.0,-4000.0
-58.0,150.0,-328.0,142.0,-4000.0,172.0,-224.0,-4000.0
-268.0,7.0,-596.0,25.0,-4000.0,148.0,-359.0,-4000.0
-236.0,15.0,-1007.0,-28.0,-4000.0,101.0,-294.0,-3517.0
-378.0,46.0,-672.0,13.0,-4000.0,53.0,-228.0,-3384.0
-482.0,-21.0,153.0,38.0,-4000.0,-167.0,-351.0,-3057.0
-470.0,-33.0,582.0,-40.0,-4000.0,-531.0,-424.0,-2151.0
-523.0,-114.0,280.0,-61.0,-4000.0,-789.0,-658.0,71.0
-305.0,-143.0,-450.0,-109.0,-3132.0,-708.0,-672.0,-25.0
30.0,-141.0,-811.0,-133.0,-1918.0,-630.0,-373.0,290.0
220.0,-142.0,-912.0,-54.0,-883.0,-613.0,-290.0,788.0
240.0,-106.0,-557.0,-14.0,271.0,-352.0,-745.0,825.0
373.0,-131.0,-568.0,68.0,1509.0,159.0,-1006.0,1382.0
428.0,-144.0,-562.0,207.0,2425.0,339.0,-908.0,1286.0
462.0,-149.0,-206.0,425.0,3428.0,172.0,-1076.0,1716.0
521.0,-165.0,-171.0,402.0,4000.0,237.0,-1271.0,1780.0
427.0,-137.0,-96.0,171.0,4000.0,441.0,-1054.0,2042.0
306.0,-130.0,-160.0,97.0,4000.0,376.0,-726.0,2225.0
96.0,-78.0,-141.0,115.0,4000.0,-163.0,-1006.0,2572.0
107.0,-44.0,-224.0,81.0,4000.0,-521.0,-1382.0,2948.0
169.0,-24.0,-268.0,-47.0,4000.0,-896.0,-737.0,3014.0
249.0,25.0,-226.0,-170.0,4000.0,-466.0,-27.0,3275.0
517.0,37.0,93.0,-244.0,4000.0,185.0,6.0,3031.0
1124.0,52.0,118.0,-437.0,4000.0,126.0,34.0,2313.0
1307.0,49.0,-54.0,-429.0,4000.0,197.0,-133.0,1136.0
408.0,93.0,111.0,-319.0,4000.0,114.0,-54.0,27.0
-114.0,83.0,197.0,-242.0,4000.0,1157.0,325.0,-992.0
-518.0,95.0,349.0,-155.0,4000.0,1409.0,291.0,-2440.0
-649.0,113.0,345.0,-129.0,4000.0,597.0,335.0,-1906.0
-288.0,66.0,390.0,-11.0,4000.0,921.0,445.0,235.0
-341.0,179.0,372.0,-2.0,3102.0,628.0,535.0,-13.0
-502.0,227.0,272.0,8.0,1213.0,118.0,857.0,-417.0
-470.0,124.0,195.0,29.0,-616.0,-293.0,805.0,-136.0
-233.0,132.0,98.0,-42.0,-1671.0,-485.0,689.0,-1.0
-354.0,82.0,20.0,-24.0,-2512.0,-261.0,853.0,19.0
-150.0,-11.0,-87.0,35.0,-3767.0,53.0,934.0,-267.0
70.0,-2.0,-252.0,64.0,-4000.0,325.0,877.0,-116.0
-80.0,-65.0,-376.0,87.0,-3990.0,235.0,823.0,-315.0
-207.0,-142.0,-363.0,104.0,-1263.0,331.0,889.0,-142.0
-250.0,-114.0,-476.0,71.0,3541.0,206.0,767.0,-76.0
-10.0,-105.0,-441.0,50.0,4000.0,71.0,823.0,63.0
92.0,-87.0,-212.0,7.0,4000.0,-88.0,897.0,261.0
199.0,-55.0,-78.0,42.0,4000.0,-146.0,790.0,459.0
151.0,-27.0,-208.0,55.0,4000.0,-50.0,832.0,786.0
86.0,-8.0,-268.0,10.0,4000.0,-266.0,954.0,1142.0
-24.0,-3.0,-128.0,61.0,4000.0,-281.0,889.0,1698.0
-8.0,40.0,-54.0,80.0,4000.0,-68.0,702.0,2119.0
102.0,26.0,-52.0,38.0,4000.0,138.0,667.0,2807.0
82.0,52.0,68.0,52.0,4000.0,303.0,628.0,3263.0
122.0,55.0,266.0,115.0,4000.0,339.0,587.0,3523.0
90.0,67.0,180.0,57.0,4000.0,537.0,470.0,3535.0
183.0,81.0,23.0,-18.0,-1992.0,537.0,297.0,3535.0
358.0,11.0,-6.0,7.0,-4000.0,35.0,185.0,3404.0
473.0,12.0,61.0,41.0,-4000.0,43.0,64.0,3161.0
473.0,-10.0,108.0,6.0,-4000.0,348.0,46.0,2883.0
314.0,-24.0,1.0,-69.0,-4000.0,232.0,84.0,2354.0
6.0,-37.0,-34.0,-182.0,-4000.0,39.0,81.0,1914.0
-190.0,-32.0,180.0,-271.0,-4000.0,-289.0,15.0,1391.0
-240.0,-11.0,1062.0,-314.0,-4000.0,-316.0,-47.0,825.0
-266.0,-6.0,2094.0,-352.0,-4000.0,-80.0,-90.0,276.0
-162.0,8.0,1680.0,-325.0,-4000.0,-156.0,-151.0,-320.0
-65.0,3.0,325.0,-293.0,-4000.0,-240.0,-146.0,-883.0
64.0,38.0,-804.0,-185.0,-4000.0,-532.0,-146.0,-1558.0
192.0,45.0,-1276.0,-171.0,-4000.0,-643.0,-159.0,-2295.0
127.0,20.0,-1069.0,-200.0,-4000.0,-320.0,-202.0,-3154.0
-69.0,12.0,-847.0,-107.0,-4000.0,-423.0,-262.0,-4000.0
-268.0,-51.0,-490.0,-18.0,-3753.0,-678.0,-268.0,-4000.0
-428.0,-139.0,-225.0,51.0,-4000.0,-535.0,-258.0,-4000.0
-359.0,-91.0,-440.0,96.0,-4000.0,-331.0,-258.0,-4000.0
-283.0,-54.0,-612.0,154.0,-4000.0,-216.0,-298.0,-4000.0
-245.0,-78.0,-35.0,175.0,-3172.0,42.0,-305.0,-4000.0
-88.0,-53.0,858.0,138.0,-2318.0,-25.0,-273.0,-4000.0
-25.0,-75.0,1571.0,20.0,-1368.0,-39.0,-219.0,-4000.0
92.0,-45.0,2343.0,-35.0,180.0,107.0,-49.0,-4000.0
260.0,-18.0,1310.0,-28.0,310.0,-102.0,111.0,-4000.0
334.0,-69.0,-761.0,-17.0,758.0,-22.0,87.0,-4000.0
251.0,-66.0,-1667.0,-6.0,902.0,-154.0,16.0,-4000.0
132.0,-31.0,-1214.0,54.0,988.0,-211.0,-69.0,-4000.0
105.0,-36.0,-442.0,109.0,1258.0,-12.0,-180.0,-3414.0
93.0,-2.0,-811.0,81.0,1062.0,49.0,-174.0,-2375.0
55.0,-32.0,-641.0,99.0,1097.0,73.0,-195.0,-1404.0
-51.0,4.0,781.0,142.0,938.0,113.0,-208.0,-706.0
39.0,53.0,1243.0,154.0,1592.0,110.0,-212.0,548.0
192.0,49.0,65.0,126.0,2551.0,-24.0,-211.0,1403.0
180.0,75.0,-727.0,122.0,2825.0,-33.0,-84.0,2078.0
190.0,57.0,-707.0,122.0,2085.0,44.0,9.0,2563.0
169.0,57.0,-519.0,87.0,1629.0,272.0,-37.0,2883.0
155.0,10.0,-409.0,22.0,1865.0,262.0,-179.0,3079.0
129.0,-79.0,-489.0,-17.0,2113.0,101.0,-273.0,3144.0
-132.0,-212.0,-280.0,-15.0,2060.0,183.0,-163.0,3031.0
-228.0,-220.0,-6.0,46.0,1026.0,333.0,-59.0,2901.0
-42.0,-172.0,59.0,110.0,509.0,315.0,-69.0,2689.0
-44.0,-214.0,76.0,127.0,635.0,289.0,-90.0,2313.0
-88.0,-215.0,119.0,91.0,258.0,225.0,-150.0,1924.0
-203.0,-222.0,95.0,48.0,7.0,195.0,-81.0,1346.0
-209.0,-165.0,390.0,69.0,-205.0,280.0,-47.0,861.0
-46.0,-128.0,1021.0,91.0,141.0,194.0,-147.0,409.0
-61.0,-131.0,840.0,94.0,1059.0,106.0,-140.0,90.0
28.0,-4.0,278.0,52.0,1629.0,41.0,-36.0,-163.0
163.0,103.0,-9.0,28.0,2189.0,50.0,56.0,-349.0
92.0,103.0,-86.0,49.0,1995.0,115.0,40.0,-99.0
-20.0,75.0,95.0,90.0,1898.0,197.0,27.0,202.0
-41.0,-28.0,18.0,96.0,2060.0,283.0,-47.0,396.0
-98.0,-125.0,66.0,50.0,2225.0,311.0,-36.0,396.0
-229.0,-200.0,130.0,-16.0,2760.0,300.0,72.0,296.0
-294.0,-182.0,415.0,-42.0,3215.0,244.0,-110.0,151.0
-201.0,-78.0,1235.0,-45.0,3679.0,235.0,-190.0,20.0
-128.0,-44.0,958.0,-57.0,4000.0,196.0,-145.0,23.0
-107.0,-59.0,-125.0,-112.0,4000.0,220.0,-156.0,47.0
-100.0,-15.0,-862.0,-191.0,4000.0,282.0,-74.0,160.0
-60.0,126.0,-1219.0,-195.0,4000.0,267.0,-94.0,288.0
101.0,182.0,-892.0,-228.0,4000.0,203.0,-98.0,296.0
250.0,213.0,-131.0,-284.0,3916.0,219.0,-4.0,199.0
267.0,217.0,476.0,-271.0,2862.0,230.0,77.0,83.0
211.0,200.0,125.0,-265.0,1188.0,155.0,51.0,58.0
194.0,152.0,-447.0,-271.0,-15.0,158.0,-86.0,125.0
250.0,120.0,-564.0,-181.0,-1007.0,246.0,-159.0,149.0
277.0,147.0,-511.0,-85.0,-930.0,415.0,-172.0,96.0
249.0,87.0,63.0,-48.0,-659.0,391.0,-188.0,151.0
240.0,78.0,384.0,-34.0,-421.0,208.0,-150.0,143.0
241.0,67.0,-67.0,-23.0,109.0,107.0,-26.0,213.0
196.0,75.0,-651.0,-1.0,154.0,34.0,142.0,373.0
102.0,79.0,-585.0,34.0,491.0,105.0,274.0,556.0
1.0,48.0,-173.0,133.0,456.0,119.0,329.0,860.0
-93.0,67.0,-97.0,149.0,202.0,98.0,172.0,988.0
-119.0,26.0,-26.0,67.0,-411.0,143.0,-106.0,1130.0
-135.0,19.0,93.0,11.0,-1374.0,163.0,-282.0,1263.0
-172.0,-12.0,52.0,3.0,-1978.0,178.0,-316.0,1281.0
-226.0,-30.0,110.0,-2.0,-2513.0,213.0,-169.0,1241.0
-238.0,-23.0,56.0,15.0,-2611.0,-14.0,160.0,1112.0
-197.0,-63.0,124.0,96.0,-2466.0,-712.0,391.0,1091.0
-188.0,-78.0,309.0,110.0,-2159.0,-1330.0,331.0,1199.0
-95.0,-78.0,172.0,59.0,-1885.0,-1915.0,319.0,1199.0
-59.0,-47.0,203.0,37.0,-1398.0,-2079.0,303.0,1182.0
-11.0,-53.0,331.0,54.0,-791.0,-1421.0,331.0,1382.0
112.0,-53.0,316.0,26.0,-456.0,-665.0,315.0,1639.0
136.0,-16.0,241.0,-1.0,-160.0,-297.0,102.0,1836.0
119.0,6.0,231.0,-32.0,199.0,-224.0,58.0,1914.0
74.0,11.0,345.0,-90.0,373.0,-249.0,70.0,1977.0
4.0,13.0,630.0,-107.0,106.0,-293.0,225.0,2051.0
-58.0,29.0,1119.0,-127.0,-85.0,-131.0,348.0,1912.0
-85.0,53.0,807.0,-81.0,-222.0,165.0,238.0,1585.0
-114.0,73.0,-185.0,-80.0,-385.0,343.0,91.0,1000.0
-109.0,73.0,-841.0,-126.0,-539.0,321.0,196.0,417.0
-89.0,102.0,-1028.0,-133.0,-730.0,209.0,359.0,24.0
-92.0,128.0,-580.0,-206.0,-934.0,210.0,225.0,-557.0
-82.0,162.0,43.0,-149.0,-983.0,333.0,91.0,-1115.0
-94.0,189.0,628.0,15.0,-677.0,404.0,-12.0,-1579.0
6.0,149.0,914.0,56.0,-441.0,368.0,32.0,-2100.0
25.0,135.0,611.0,-9.0,237.0,351.0,37.0,-2360.0
-41.0,120.0,-152.0,-84.0,1329.0,155.0,6.0,-2537.0
-92.0,59.0,-328.0,-93.0,1759.0,-64.0,13.0,-2694.0
-142.0,30.0,400.0,-127.0,2374.0,-84.0,-109.0,-2872.0
-135.0,57.0,792.0,-75.0,3916.0,-88.0,-98.0,-2918.0
-153.0,93.0,91.0,-46.0,4000.0,-125.0,-69.0,-2698.0
-27.0,111.0,-502.0,-45.0,4000.0,-213.0,-95.0,-2442.0
184.0,93.0,-617.0,5.0,2296.0,-286.0,-133.0,-2165.0
346.0,70.0,-951.0,-13.0,-673.0,-293.0,-210.0,-2069.0
298.0,43.0,-906.0,28.0,-2303.0,-308.0,-202.0,-1891.0
166.0,-10.0,-906.0,99.0,-3661.0,-269.0,-112.0,-1469.0
509.0,-10.0,-306.0,139.0,-4000.0,-188.0,-108.0,-1274.0
1038.0,17.0,-89.0,142.0,-3917.0,-182.0,-44.0,-883.0
900.0,-45.0,-437.0,109.0,-3754.0,-227.0,13.0,-419.0
208.0,-56.0,-189.0,131.0,-2716.0,-267.0,90.0,-431.0
-450.0,38.0,415.0,145.0,-812.0,-142.0,117.0,-123.0
-1096.0,67.0,258.0,134.0,1026.0,4.0,-6.0,401.0
-1642.0,95.0,-674.0,89.0,2048.0,83.0,-1.0,817.0
-1853.0,58.0,-340.0,47.0,1417.0,133.0,-25.0,1346.0
-1353.0,29.0,28.0,16.0,1201.0,71.0,-10.0,1586.0
-625.0,25.0,-100.0,-17.0,505.0,21.0,-20.0,1521.0
-201.0,5.0,241.0,-46.0,-818.0,83.0,-58.0,1573.0
21.0,-35.0,1452.0,-30.0,-2409.0,248.0,101.0,1762.0
-110.0,-103.0,2539.0,-28.0,-3315.0,390.0,343.0,1663.0
-23.0,-108.0,1452.0,-25.0,-2289.0,510.0,510.0,1846.0
157.0,-104.0,-68.0,16.0,-395.0,701.0,590.0,2245.0
-26.0,-36.0,-1881.0,51.0,157.0,716.0,441.0,2572.0
-75.0,-36.0,-3355.0,85.0,-686.0,571.0,81.0,3469.0
79.0,-59.0,-2624.0,87.0,119.0,498.0,-124.0,4000.0
198.0,-53.0,-2188.0,124.0,140.0,441.0,-336.0,4000.0
318.0,-79.0,-1215.0,111.0,-744.0,237.0,-791.0,4000.0
447.0,-31.0,-438.0,27.0,-818.0,34.0,-1128.0,4000.0
543.0,13.0,11.0,226.0,-1520.0,-62.0,-933.0,4000.0
758.0,48.0,1106.0,325.0,-1918.0,-69.0,-382.0,4000.0
986.0,40.0,699.0,111.0,-2741.0,-52.0,479.0,3910.0
935.0,-1.0,29.0,73.0,-2611.0,-148.0,576.0,3393.0
920.0,-22.0,-305.0,18.0,-195.0,-33.0,94.0,2562.0
1246.0,-58.0,-287.0,-48.0,1722.0,274.0,234.0,1977.0
798.0,-57.0,229.0,-113.0,1710.0,349.0,824.0,1182.0
45.0,-48.0,546.0,-266.0,961.0,276.0,1228.0,195.0
-331.0,-62.0,801.0,-242.0,365.0,125.0,1313.0,-492.0
-612.0,-50.0,760.0,-214.0,432.0,129.0,857.0,-1050.0
-604.0,-42.0,695.0,-214.0,497.0,119.0,-664.0,-1310.0
-871.0,29.0,1021.0,-255.0,-291.0,99.0,-1258.0,-1534.0
-1170.0,105.0,931.0,-301.0,-596.0,219.0,-1462.0,-1697.0
-1039.0,55.0,655.0,-220.0,-118.0,162.0,-1652.0,-1904.0
-450.0,6.0,606.0,-194.0,363.0,81.0,-1173.0,-1904.0
119.0,-1.0,624.0,-213.0,505.0,8.0,-513.0,-1859.0
325.0,-10.0,719.0,-245.0,480.0,-2.0,533.0,-1762.0
447.0,-80.0,630.0,-222.0,193.0,180.0,962.0,-1365.0
487.0,-202.0,203.0,-168.0,253.0,348.0,661.0,-1050.0
408.0,-234.0,-70.0,-153.0,595.0,400.0,554.0,-736.0
395.0,-174.0,-59.0,-101.0,651.0,408.0,-102.0,-647.0
318.0,-172.0,115.0,-34.0,831.0,361.0,-221.0,-776.0
306.0,-205.0,-9.0,1.0,822.0,81.0,311.0,-889.0
222.0,-226.0,-157.0,37.0,431.0,-156.0,248.0,-1143.0
-550.0,-230.0,-190.0,42.0,253.0,-129.0,294.0,-1577.0
-962.0,-171.0,-290.0,69.0,232.0,2.0,362.0,-2016.0
250.0,-159.0,-383.0,81.0,-197.0,138.0,335.0,-2128.0
1345.0,-164.0,-389.0,64.0,-730.0,208.0,219.0,-2022.0
1872.0,-136.0,-129.0,47.0,-1253.0,225.0,233.0,-1921.0
1949.0,-94.0,39.0,77.0,-1619.0,10.0,138.0,-1672.0
1411.0,-70.0,579.0,37.0,-1626.0,-147.0,132.0,-1540.0
573.0,-120.0,1704.0,-2.0,-1267.0,166.0,177.0,-1709.0
-271.0,-150.0,2343.0,-13.0,-425.0,129.0,124.0,-1594.0
-85.0,-87.0,1296.0,-34.0,314.0,-222.0,78.0,-1319.0
-777.0,-11.0,75.0,-22.0,202.0,-255.0,-66.0,-1013.0
-2012.0,46.0,-217.0,-37.0,-647.0,-611.0,-89.0,-919.0
-2244.0,57.0,-759.0,-56.0,-1044.0,-881.0,-214.0,-1049.0
-1075.0,27.0,-1237.0,-60.0,-343.0,-835.0,-224.0,-1194.0
-807.0,12.0,-1484.0,-30.0,196.0,-835.0,-149.0,-1390.0
-2114.0,8.0,-1019.0,-45.0,-1052.0,-546.0,-77.0,-1856.0
-2031.0,-20.0,-165.0,-56.0,-2989.0,-232.0,-78.0,-2259.0
-631.0,-56.0,316.0,-26.0,-3649.0,274.0,-75.0,-2165.0
275.0,-23.0,712.0,129.0,-3119.0,589.0,-74.0,-1921.0
175.0,25.0,931.0,264.0,-2181.0,290.0,-22.0,-1520.0
-612.0,58.0,132.0,144.0,-934.0,249.0,-58.0,-1039.0
-1105.0,74.0,-1388.0,28.0,207.0,888.0,-398.0,-529.0
86.0,-31.0,-2472.0,18.0,896.0,1482.0,-163.0,1.0
1346.0,-80.0,-2851.0,9.0,1898.0,1331.0,77.0,634.0
994.0,-66.0,-1779.0,29.0,2695.0,858.0,-142.0,1195.0
447.0,-42.0,-441.0,59.0,3150.0,220.0,-79.0,1476.0
220.0,-13.0,-340.0,74.0,3541.0,-556.0,-37.0,1585.0
525.0,-1.0,-971.0,164.0,3837.0,-1062.0,-5.0,939.0
524.0,-2.0,-776.0,142.0,4000.0,-940.0,-1.0,290.0
-73.0,-7.0,98.0,95.0,4000.0,-149.0,-31.0,-199.0
-85.0,-6.0,385.0,103.0,4000.0,693.0,-39.0,-804.0
-51.0,-22.0,572.0,96.0,4000.0,1644.0,-194.0,-714.0
-97.0,1.0,585.0,134.0,4000.0,2382.0,-222.0,-199.0
63.0,-20.0,373.0,81.0,808.0,2289.0,-219.0,434.0
-8.0,-48.0,195.0,12.0,-2121.0,2377.0,-268.0,1012.0
0.0,-42.0,42.0,-31.0,-2016.0,2809.0,-304.0,1698.0
10.0,4.0,177.0,-53.0,-1463.0,2190.0,-192.0,1660.0
121.0,25.0,306.0,-62.0,137.0,636.0,-80.0,1065.0
155.0,25.0,345.0,-103.0,1824.0,-597.0,-61.0,462.0
114.0,19.0,498.0,-116.0,3037.0,-797.0,-71.0,-492.0
188.0,-17.0,480.0,-149.0,2889.0,-1330.0,-342.0,-889.0
243.0,6.0,450.0,-131.0,606.0,-1734.0,-501.0,-908.0
306.0,20.0,512.0,-88.0,-1528.0,-1794.0,-489.0,-974.0
250.0,41.0,1053.0,-111.0,-4000.0,-2177.0,-343.0,-1083.0
269.0,33.0,1770.0,-123.0,-4000.0,-2026.0,-102.0,-1170.0
166.0,37.0,1627.0,-101.0,-1805.0,-1876.0,-226.0,-990.0
79.0,59.0,1488.0,-107.0,1292.0,-1607.0,-287.0,-730.0
150.0,67.0,902.0,-105.0,4000.0,-1735.0,-134.0,-594.0
789.0,29.0,546.0,-96.0,4000.0,-1896.0,-32.0,-427.0
1623.0,33.0,2030.0,-103.0,4000.0,-1604.0,123.0,-259.0
1478.0,83.0,3007.0,-88.0,4000.0,-1717.0,497.0,-206.0
608.0,63.0,2832.0,-50.0,4000.0,-2041.0,755.0,-254.0
-309.0,64.0,-123.0,-22.0,4000.0,-2077.0,1084.0,-325.0
-609.0,128.0,-3502.0,-4.0,318.0,-1701.0,1639.0,-127.0
-915.0,212.0,-4000.0,-12.0,-3456.0,-1461.0,1849.0,-69.0
-1495.0,221.0,-3591.0,19.0,-4000.0,-1317.0,1592.0,-236.0
-1658.0,273.0,-2481.0,85.0,-4000.0,-1330.0,968.0,-264.0
-1495.0,327.0,-2470.0,160.0,-3433.0,-1249.0,669.0,-232.0
-1365.0,338.0,-1864.0,185.0,-3838.0,-964.0,525.0,-235.0
-795.0,403.0,-1563.0,93.0,-4000.0,-741.0,303.0,8.0
-309.0,406.0,-678.0,-36.0,-4000.0,-485.0,246.0,556.0
-407.0,338.0,2408.0,63.0,-4000.0,-141.0,76.0,731.0
-25.0,325.0,2616.0,182.0,-4000.0,325.0,-85.0,621.0
393.0,306.0,88.0,47.0,-4000.0,608.0,-1.0,1020.0
920.0,269.0,-1398.0,-90.0,-4000.0,693.0,-82.0,2106.0
1637.0,179.0,-1549.0,-107.0,-4000.0,876.0,-200.0,2754.0
1869.0,87.0,-906.0,-81.0,-4000.0,1006.0,642.0,3079.0
2258.0,50.0,-285.0,-57.0,-4000.0,1018.0,1033.0,3260.0
2781.0,-23.0,-203.0,-59.0,-4000.0,823.0,527.0,2249.0
2523.0,-87.0,-415.0,-132.0,-2729.0,498.0,693.0,1176.0
1450.0,-81.0,-239.0,-111.0,375.0,522.0,619.0,629.0
232.0,-3.0,606.0,46.0,2513.0,469.0,15.0,751.0
-757.0,29.0,1045.0,93.0,4000.0,492.0,-839.0,1012.0
-1567.0,33.0,1497.0,-8.0,4000.0,641.0,-2211.0,1221.0
-1856.0,27.0,1348.0,-10.0,4000.0,766.0,-1991.0,2237.0
-2173.0,35.0,1249.0,-14.0,4000.0,896.0,-313.0,3209.0
-3476.0,46.0,1283.0,-43.0,4000.0,929.0,32.0,4000.0
-3850.0,69.0,215.0,-48.0,4000.0,1026.0,-258.0,4000.0
-2283.0,99.0,-157.0,-26.0,4000.0,985.0,-342.0,4000.0
-1076.0,21.0,-29.0,-44.0,4000.0,1006.0,-384.0,4000.0
-883.0,184.0,466.0,-81.0,3916.0,1118.0,-298.0,4000.0
-480.0,331.0,480.0,-16.0,3606.0,1148.0,53.0,4000.0
-24.0,135.0,757.0,-48.0,3410.0,1083.0,445.0,4000.0
366.0,-38.0,1094.0,-98.0,2711.0,1048.0,510.0,4000.0
433.0,-159.0,-125.0,-103.0,2451.0,1083.0,348.0,4000.0
322.0,-241.0,-32.0,-87.0,2711.0,1012.0,-113.0,3275.0
125.0,-282.0,533.0,-76.0,4000.0,929.0,-186.0,-287.0
-89.0,-275.0,147.0,-32.0,4000.0,706.0,-133.0,-3610.0
-67.0,-177.0,-422.0,56.0,3744.0,576.0,-227.0,-4000.0
137.0,-118.0,-1279.0,29.0,1488.0,457.0,-277.0,-4000.0
473.0,-51.0,-1471.0,-14.0,-1198.0,380.0,-322.0,-4000.0
668.0,-6.0,-1085.0,6.0,-2140.0,319.0,-338.0,-4000.0
762.0,-69.0,-244.0,-3.0,-1528.0,107.0,-371.0,-4000.0
762.0,-117.0,385.0,-34.0,-556.0,-21.0,-371.0,-4000.0
733.0,-101.0,-110.0,-17.0,-425.0,-70.0,-216.0,-4000.0
692.0,-161.0,-759.0,4.0,-201.0,62.0,-65.0,-4000.0
635.0,-304.0,-1400.0,-21.0,-744.0,102.0,-66.0,-4000.0
544.0,-310.0,-1362.0,-24.0,-1374.0,144.0,-16.0,-4000.0
495.0,-334.0,-402.0,-25.0,-1234.0,205.0,-51.0,-3956.0
487.0,-393.0,-389.0,-17.0,-1007.0,191.0,-52.0,-2100.0
477.0,-426.0,-214.0,19.0,-681.0,339.0,-60.0,-620.0
494.0,-430.0,344.0,34.0,-466.0,339.0,-41.0,591.0
434.0,-310.0,703.0,45.0,-549.0,341.0,26.0,2640.0
358.0,-258.0,911.0,2.0,-411.0,368.0,8.0,3896.0
328.0,-229.0,267.0,-66.0,-7.0,311.0,66.0,4000.0
260.0,-174.0,-2.0,-92.0,432.0,300.0,97.0,4000.0
184.0,-162.0,35.0,-115.0,575.0,243.0,67.0,4000.0
177.0,-165.0,762.0,-90.0,-248.0,167.0,81.0,4000.0
86.0,-79.0,1127.0,-70.0,-285.0,114.0,107.0,4000.0
-33.0,9.0,259.0,-74.0,-319.0,51.0,97.0,4000.0
-33.0,101.0,-181.0,-26.0,-1381.0,43.0,83.0,293.0
4.0,179.0,-348.0,-24.0,-2496.0,61.0,49.0,-2735.0
27.0,117.0,-98.0,-97.0,-2595.0,-45.0,54.0,-3513.0
-28.0,91.0,290.0,-159.0,-201.0,-114.0,111.0,-4000.0
-66.0,93.0,982.0,-143.0,941.0,-2.0,94.0,-4000.0
-113.0,132.0,1574.0,-112.0,1222.0,167.0,42.0,-4000.0
-98.0,175.0,2195.0,-75.0,3102.0,155.0,5.0,-4000.0
-86.0,182.0,3397.0,-56.0,3476.0,145.0,12.0,-3956.0
-46.0,167.0,3822.0,-52.0,3916.0,20.0,44.0,-4000.0
-15.0,143.0,4000.0,8.0,4000.0,-287.0,4.0,-4000.0
-40.0,162.0,4000.0,16.0,3204.0,-381.0,26.0,-4000.0
4.0,168.0,1509.0,44.0,3215.0,-405.0,51.0,-4000.0
-12.0,170.0,-2373.0,12.0,3008.0,-399.0,41.0,-4000.0
-31.0,157.0,-2607.0,-48.0,1865.0,-393.0,32.0,-4000.0
-85.0,152.0,-2039.0,-72.0,-160.0,-358.0,7.0,-4000.0
-128.0,150.0,-3136.0,-97.0,-1823.0,-371.0,27.0,-3992.0
-134.0,150.0,-3307.0,-13.0,-2044.0,-378.0,21.0,-2866.0
-143.0,150.0,-963.0,44.0,-2057.0,-340.0,23.0,-1404.0
-136.0,160.0,1636.0,-14.0,-2181.0,-362.0,-2.0,222.0
-142.0,164.0,3952.0,-13.0,-1915.0,-317.0,-14.0,1688.0
-138.0,117.0,1770.0,91.0,-1094.0,-338.0,-21.0,3145.0
-125.0,20.0,-4000.0,211.0,-242.0,-349.0,-55.0,4000.0
-92.0,30.0,-4000.0,211.0,-124.0,-332.0,-18.0,4000.0
-86.0,105.0,-4000.0,164.0,-403.0,-394.0,-11.0,4000.0
-73.0,116.0,-4000.0,140.0,-1595.0,-362.0,-26.0,4000.0
-44.0,126.0,-2763.0,85.0,-2664.0,-327.0,19.0,4000.0
-32.0,160.0,-2027.0,164.0,-2029.0,-340.0,55.0,4000.0
-49.0,176.0,-2560.0,209.0,-1501.0,-325.0,64.0,3586.0
-40.0,135.0,-2673.0,187.0,-767.0,-287.0,30.0,3198.0
2.0,130.0,-1479.0,169.0,32.0,-277.0,-36.0,3079.0
-3.0,140.0,325.0,113.0,-677.0,-232.0,-41.0,3458.0
5.0,134.0,1223.0,164.0,-1039.0,-204.0,-8.0,3910.0
15.0,101.0,2224.0,174.0,-838.0,-98.0,-27.0,3079.0
-14.0,51.0,2616.0,74.0,-511.0,15.0,-50.0,2367.0
49.0,-19.0,1824.0,13.0,-669.0,30.0,-22.0,2640.0
204.0,-28.0,1729.0,-28.0,-2122.0,-52.0,-10.0,2883.0
225.0,6.0,1639.0,-95.0,-2753.0,-53.0,-9.0,2498.0
738.0,7.0,2537.0,-100.0,-3014.0,42.0,32.0,1502.0
1949.0,-24.0,3054.0,-49.0,-3278.0,180.0,59.0,988.0
1743.0,-21.0,3432.0,-101.0,-1998.0,191.0,62.0,788.0
760.0,-26.0,4000.0,-182.0,-1423.0,243.0,10.0,462.0
1319.0,-91.0,4000.0,-188.0,-1823.0,376.0,-29.0,206.0
1169.0,-133.0,2978.0,-108.0,-2010.0,210.0,-17.0,94.0
492.0,-163.0,68.0,103.0,-1377.0,225.0,-2.0,426.0
220.0,-215.0,-1302.0,194.0,1032.0,141.0,31.0,606.0
-1560.0,-223.0,-2462.0,113.0,1704.0,-112.0,17.0,296.0
-2786.0,-176.0,-3567.0,51.0,2124.0,-91.0,8.0,369.0
-3032.0,-193.0,-3343.0,34.0,2630.0,-143.0,59.0,255.0
-2832.0,-199.0,-820.0,52.0,2425.0,-159.0,81.0,71.0
-2563.0,-117.0,1249.0,-53.0,2972.0,-100.0,90.0,44.0
-2098.0,-86.0,361.0,-178.0,2177.0,-33.0,58.0,-273.0
-1039.0,-76.0,-1134.0,-120.0,1995.0,9.0,24.0,-406.0
-706.0,-65.0,-2524.0,-95.0,1914.0,1.0,41.0,-370.0
-620.0,-31.0,-2639.0,-170.0,1734.0,5.0,40.0,-269.0
-669.0,24.0,-1878.0,-208.0,1604.0,-17.0,39.0,-147.0
-417.0,33.0,-841.0,-198.0,1263.0,-66.0,43.0,33.0
175.0,-15.0,296.0,-123.0,1573.0,-127.0,46.0,-46.0
358.0,-82.0,410.0,-125.0,1539.0,-127.0,51.0,14.0
465.0,-67.0,654.0,-132.0,1592.0,-108.0,19.0,188.0
660.0,-37.0,1217.0,-111.0,1269.0,-134.0,26.0,-141.0
680.0,-43.0,2352.0,-87.0,1183.0,-157.0,84.0,-549.0
583.0,-51.0,2924.0,22.0,1071.0,-167.0,117.0,-161.0
587.0,-43.0,3499.0,-2.0,491.0,-188.0,126.0,261.0
543.0,-1.0,2398.0,-9.0,219.0,-182.0,191.0,159.0
595.0,-18.0,-362.0,106.0,30.0,-217.0,260.0,176.0
785.0,-12.0,-698.0,122.0,-53.0,-167.0,221.0,-175.0
929.0,23.0,402.0,118.0,-63.0,-5.0,246.0,-508.0
1116.0,24.0,2848.0,110.0,-56.0,183.0,262.0,-803.0
1767.0,-5.0,4000.0,-20.0,-201.0,364.0,268.0,-948.0
2679.0,-59.0,4000.0,-223.0,-223.0,576.0,238.0,-1083.0
2406.0,-69.0,4000.0,-332.0,-13.0,683.0,203.0,-862.0
1130.0,-62.0,-4000.0,-379.0,-9.0,458.0,212.0,-380.0
424.0,-86.0,-4000.0,-448.0,75.0,431.0,183.0,-327.0
473.0,-134.0,-4000.0,-523.0,22.0,441.0,183.0,-189.0
505.0,-160.0,-4000.0,-433.0,-356.0,284.0,126.0,-455.0
172.0,-103.0,-4000.0,-243.0,-673.0,329.0,86.0,-427.0
-25.0,-48.0,-4000.0,-169.0,-990.0,283.0,95.0,-126.0
-744.0,-33.0,-3782.0,15.0,-1123.0,123.0,99.0,332.0
-1717.0,44.0,-2601.0,172.0,-1077.0,-91.0,111.0,802.0
-2189.0,129.0,-585.0,276.0,-1097.0,-297.0,131.0,1012.0
-1984.0,228.0,288.0,458.0,-1194.0,-234.0,145.0,1574.0
-1817.0,238.0,1824.0,453.0,-1267.0,-155.0,145.0,1833.0
-1762.0,160.0,3054.0,438.0,-1105.0,-268.0,149.0,1468.0
-1652.0,138.0,4000.0,335.0,-856.0,-354.0,114.0,1207.0
-1882.0,86.0,3445.0,116.0,-466.0,-297.0,89.0,1338.0
-1105.0,105.0,2795.0,51.0,-309.0,-169.0,54.0,1272.0
-560.0,157.0,385.0,-46.0,-274.0,-47.0,16.0,1142.0
-124.0,168.0,-1795.0,-198.0,-225.0,6.0,12.0,1069.0
524.0,87.0,2474.0,-160.0,-299.0,76.0,-3.0,156.0
583.0,-1.0,4000.0,16.0,-73.0,97.0,17.0,-1078.0
768.0,-15.0,4000.0,217.0,283.0,89.0,-18.0,-460.0
790.0,-53.0,-2254.0,271.0,575.0,77.0,-14.0,731.0
798.0,-96.0,-3991.0,226.0,570.0,72.0,-8.0,751.0
775.0,-177.0,-479.0,139.0,431.0,31.0,-43.0,551.0
758.0,-170.0,4000.0,-127.0,59.0,-80.0,-41.0,40.0
798.0,-106.0,4000.0,-462.0,-356.0,-64.0,-72.0,187.0
715.0,-28.0,-841.0,-906.0,-621.0,-81.0,-46.0,556.0
524.0,21.0,-4000.0,-1174.0,-1129.0,-124.0,-118.0,556.0
334.0,28.0,-4000.0,-864.0,-1398.0,-135.0,-76.0,580.0
325.0,33.0,-4000.0,-432.0,-1619.0,-158.0,-42.0,62.0
379.0,17.0,-4000.0,-160.0,-1756.0,-175.0,-98.0,-565.0
516.0,27.0,-2346.0,51.0,-1398.0,-124.0,-130.0,-1013.0
713.0,3.0,-320.0,106.0,-582.0,-62.0,-233.0,-973.0
1226.0,2.0,-185.0,222.0,468.0,133.0,-213.0,-730.0
2013.0,-50.0,-182.0,459.0,706.0,195.0,-233.0,-467.0
1307.0,-89.0,-545.0,654.0,530.0,35.0,-326.0,-366.0
473.0,-73.0,3510.0,711.0,532.0,47.0,-340.0,-685.0
1364.0,-62.0,4000.0,524.0,562.0,14.0,-298.0,-970.0
2146.0,-62.0,2054.0,280.0,748.0,31.0,-259.0,-1110.0
2127.0,-95.0,-562.0,118.0,933.0,72.0,-267.0,-1061.0
1661.0,-81.0,-707.0,-9.0,1227.0,46.0,-262.0,-948.0
517.0,-77.0,-1198.0,-178.0,1527.0,185.0,-251.0,-692.0
-1705.0,-82.0,-886.0,-214.0,1592.0,348.0,-192.0,-292.0
-3722.0,-37.0,-1453.0,-198.0,1417.0,235.0,-176.0,132.0
-4000.0,25.0,-515.0,-198.0,1227.0,207.0,-110.0,462.0
-4000.0,57.0,719.0,-44.0,1462.0,153.0,-13.0,786.0
-3140.0,99.0,374.0,179.0,1156.0,-53.0,27.0,1006.0
-1221.0,80.0,957.0,365.0,887.0,30.0,80.0,751.0
-23.0,46.0,1432.0,255.0,503.0,119.0,98.0,1.0
-195.0,77.0,1184.0,122.0,-117.0,129.0,100.0,-720.0
-1105.0,113.0,727.0,21.0,-598.0,189.0,160.0,-931.0
-1560.0,114.0,757.0,-61.0,-856.0,480.0,127.0,-1065.0
-821.0,44.0,683.0,-75.0,-187.0,510.0,82.0,-1123.0
-350.0,-41.0,764.0,-212.0,489.0,107.0,143.0,-1120.0
408.0,-92.0,492.0,-170.0,1026.0,189.0,156.0,-1256.0
977.0,-56.0,402.0,-149.0,505.0,160.0,542.0,-1325.0
1051.0,5.0,215.0,-258.0,-643.0,39.0,954.0,-1508.0
1701.0,18.0,-90.0,-238.0,-869.0,119.0,652.0,-1756.0
1743.0,14.0,-357.0,-214.0,-588.0,39.0,271.0,-1438.0
111.0,51.0,-641.0,-253.0,-65.0,119.0,439.0,-353.0
-1027.0,94.0,-216.0,-89.0,-197.0,51.0,481.0,395.0
-590.0,72.0,189.0,204.0,-686.0,90.0,-53.0,825.0
-72.0,53.0,751.0,375.0,-413.0,35.0,-717.0,1077.0
1492.0,-18.0,1184.0,191.0,491.0,-20.0,-704.0,938.0
1254.0,-51.0,1379.0,-15.0,1083.0,87.0,-411.0,621.0
543.0,-34.0,782.0,-137.0,1395.0,44.0,-418.0,192.0
870.0,-66.0,-64.0,-321.0,1182.0,-133.0,-233.0,174.0
447.0,-57.0,-285.0,-218.0,618.0,-234.0,-598.0,526.0
96.0,6.0,4.0,-77.0,528.0,-182.0,-946.0,914.0
44.0,36.0,268.0,87.0,525.0,-55.0,-575.0,784.0
543.0,34.0,61.0,-1.0,310.0,134.0,-195.0,456.0
627.0,31.0,-42.0,-263.0,-291.0,81.0,59.0,-14.0
-318.0,26.0,-70.0,-137.0,-608.0,-57.0,-146.0,-431.0
-1305.0,34.0,47.0,34.0,-404.0,-152.0,-182.0,-232.0
-1544.0,20.0,-563.0,-12.0,-334.0,-173.0,89.0,-218.0
-1404.0,30.0,-1107.0,-214.0,-783.0,-350.0,229.0,-232.0
-1235.0,53.0,-1257.0,-220.0,-902.0,-722.0,238.0,-53.0
-691.0,74.0,-1101.0,84.0,-543.0,-940.0,325.0,102.0
-29.0,80.0,-368.0,245.0,-707.0,-919.0,346.0,247.0
-201.0,48.0,272.0,351.0,-877.0,-580.0,348.0,454.0
-285.0,36.0,598.0,386.0,-909.0,-466.0,467.0,596.0
530.0,21.0,450.0,308.0,-1072.0,-447.0,329.0,361.0
1362.0,28.0,476.0,211.0,-1255.0,-255.0,309.0,-79.0
1124.0,22.0,476.0,38.0,-1174.0,-116.0,394.0,-313.0
725.0,4.0,408.0,-125.0,-934.0,-31.0,496.0,-496.0
473.0,-12.0,495.0,-17.0,-793.0,-149.0,542.0,-824.0
123.0,-45.0,520.0,254.0,-534.0,90.0,749.0,-1078.0
1820.0,-59.0,541.0,337.0,-421.0,701.0,934.0,-1339.0
3182.0,-72.0,858.0,490.0,-220.0,590.0,717.0,-953.0
1486.0,-127.0,1303.0,603.0,75.0,94.0,95.0,-273.0
192.0,-77.0,1349.0,425.0,97.0,172.0,368.0,-282.0
-850.0,-44.0,918.0,80.0,89.0,177.0,1522.0,-427.0
-1931.0,-91.0,343.0,-133.0,40.0,278.0,1380.0,-354.0
-1283.0,-62.0,11.0,-323.0,56.0,628.0,767.0,-199.0
-319.0,-28.0,122.0,-515.0,47.0,114.0,-599.0,-23.0
285.0,-35.0,498.0,-450.0,-109.0,-1056.0,-1605.0,-95.0
-150.0,-26.0,-651.0,-552.0,-392.0,-1135.0,-1397.0,-305.0
-431.0,9.0,-1227.0,-409.0,-425.0,-175.0,-1113.0,-305.0
-203.0,-24.0,-576.0,-163.0,-547.0,-334.0,-101.0,-81.0
363.0,-11.0,-26.0,-44.0,-667.0,-584.0,-558.0,320.0
331.0,18.0,917.0,105.0,-576.0,-83.0,-640.0,666.0
-170.0,-20.0,968.0,43.0,-224.0,276.0,148.0,1012.0
328.0,-5.0,822.0,132.0,20.0,506.0,-106.0,1248.0
21.0,60.0,343.0,255.0,-278.0,113.0,232.0,1334.0
-535.0,77.0,108.0,327.0,-356.0,-98.0,236.0,1260.0
-844.0,102.0,166.0,325.0,-256.0,-167.0,27.0,1207.0
-1292.0,152.0,228.0,365.0,29.0,-481.0,-672.0,1187.0
-1856.0,147.0,385.0,290.0,-13.0,-124.0,-1031.0,1012.0
-1882.0,85.0,168.0,22.0,-113.0,246.0,-1749.0,1069.0
-1110.0,67.0,378.0,-99.0,-7.0,289.0,-1848.0,811.0
-563.0,125.0,150.0,-137.0,-91.0,548.0,995.0,467.0
346.0,95.0,-147.0,-174.0,-42.0,415.0,2514.0,418.0
888.0,3.0,-347.0,-220.0,-33.0,77.0,2114.0,426.0
1362.0,39.0,-344.0,-21.0,-212.0,90.0,2321.0,404.0
1372.0,93.0,-5.0,238.0,-673.0,419.0,2843.0,131.0
608.0,135.0,110.0,424.0,-644.0,1012.0,2101.0,16.0
876.0,99.0,379.0,634.0,-121.0,1263.0,726.0,112.0
308.0,33.0,385.0,720.0,484.0,1182.0,-332.0,102.0
-1039.0,-1.0,270.0,793.0,973.0,548.0,72.0,209.0
-804.0,-89.0,-8.0,622.0,1124.0,-122.0,-94.0,308.0
570.0,-75.0,-190.0,458.0,1075.0,-208.0,-2186.0,526.0
1259.0,-46.0,-245.0,361.0,976.0,-449.0,-3338.0,589.0
725.0,-2.0,-160.0,-72.0,1183.0,-741.0,-2251.0,401.0
1670.0,90.0,145.0,-690.0,1269.0,-1127.0,-1206.0,377.0
4000.0,111.0,-938.0,-1231.0,1136.0,-1912.0,-1527.0,290.0
4000.0,102.0,-2251.0,-1427.0,1018.0,-2386.0,-1897.0,162.0
-258.0,40.0,-2299.0,-1049.0,986.0,-2725.0,-1519.0,-67.0
2211.0,-55.0,-2057.0,-594.0,994.0,-4000.0,-247.0,-209.0
2480.0,-127.0,-1288.0,-519.0,764.0,-4000.0,307.0,-305.0
-3411.0,-133.0,-165.0,-184.0,432.0,-3470.0,853.0,-537.0
-4000.0,-56.0,-546.0,69.0,13.0,1531.0,2020.0,-589.0
-4000.0,20.0,-1732.0,182.0,-108.0,1124.0,2582.0,-665.0
-4000.0,-11.0,-1678.0,655.0,373.0,172.0,1628.0,-711.0
-4000.0,-49.0,-1072.0,1216.0,823.0,-722.0,426.0,-644.0
-2256.0,-48.0,-694.0,1287.0,1009.0,1417.0,-355.0,-462.0
-386.0,-52.0,-389.0,711.0,902.0,4000.0,-1606.0,-330.0
-196.0,48.0,386.0,360.0,163.0,4000.0,-2728.0,-424.0
-2112.0,44.0,461.0,-23.0,-664.0,4000.0,-1991.0,-555.0
-2336.0,-23.0,-69.0,-273.0,-669.0,4000.0,-1309.0,-655.0
-1546.0,3.0,-487.0,-366.0,-335.0,4000.0,-2156.0,-738.0
843.0,31.0,-1492.0,-849.0,-514.0,4000.0,-1199.0,-758.0
3330.0,40.0,-1811.0,-951.0,-1137.0,3333.0,1270.0,-653.0
1625.0,-28.0,-1362.0,-450.0,-2173.0,3007.0,2761.0,-536.0
-268.0,-59.0,-432.0,-800.0,-2843.0,2425.0,2442.0,-492.0
-48.0,-94.0,760.0,-2437.0,-3079.0,1799.0,2318.0,-435.0
843.0,-113.0,1367.0,-3209.0,-2953.0,921.0,2033.0,-305.0
1429.0,-78.0,3173.0,-2223.0,-2470.0,1474.0,1190.0,-163.0
2211.0,-121.0,4000.0,-1092.0,-2870.0,2189.0,759.0,-111.0
2092.0,-137.0,4000.0,-305.0,-3586.0,1248.0,1267.0,-153.0
1515.0,-63.0,4000.0,236.0,-4000.0,380.0,2307.0,-201.0
1559.0,-26.0,1432.0,366.0,-4000.0,471.0,687.0,-187.0
2343.0,-55.0,-542.0,538.0,-4000.0,1656.0,-1358.0,-189.0
2080.0,-57.0,69.0,323.0,-4000.0,1417.0,-1382.0,-323.0
1169.0,-38.0,1452.0,290.0,-4000.0,-1232.0,-1249.0,-284.0
1384.0,-38.0,1609.0,394.0,-4000.0,-2119.0,-1665.0,-138.0
705.0,-1.0,54.0,226.0,-4000.0,-615.0,-772.0,-181.0
460.0,-38.0,-203.0,152.0,-2224.0,-1532.0,1444.0,-96.0
1299.0,-72.0,1874.0,137.0,1182.0,-3722.0,2941.0,-148.0
3106.0,-30.0,2005.0,377.0,4000.0,-4000.0,2232.0,-295.0
4000.0,3.0,-82.0,423.0,4000.0,-4000.0,-912.0,-340.0
473.0,-18.0,-2472.0,518.0,4000.0,-3624.0,-3725.0,-618.0
-4000.0,64.0,-4000.0,818.0,4000.0,-3246.0,-4000.0,-750.0
-3695.0,70.0,-4000.0,1110.0,4000.0,-3376.0,-4000.0,-557.0
-1950.0,44.0,-4000.0,1493.0,4000.0,-2998.0,-1606.0,-362.0
487.0,176.0,-4000.0,1220.0,4000.0,-1989.0,1418.0,-227.0
-1707.0,191.0,-4000.0,301.0,4000.0,-2286.0,2890.0,-164.0
-4000.0,176.0,-4000.0,7.0,4000.0,-1381.0,2375.0,-44.0
-3009.0,111.0,-4000.0,245.0,4000.0,-620.0,1122.0,27.0
-450.0,94.0,-4000.0,132.0,4000.0,-1688.0,70.0,16.0
361.0,-8.0,-4000.0,-195.0,4000.0,-2079.0,-1977.0,133.0
1661.0,-44.0,-3080.0,138.0,2630.0,-2909.0,-1228.0,190.0
243.0,47.0,311.0,476.0,261.0,-3518.0,1856.0,340.0
-1430.0,69.0,2412.0,207.0,-1637.0,-2983.0,2973.0,387.0
1226.0,75.0,148.0,565.0,-3120.0,-1989.0,2444.0,332.0
3573.0,-106.0,-2413.0,1306.0,-4000.0,-1357.0,576.0,304.0
4000.0,-206.0,-2757.0,638.0,-4000.0,142.0,179.0,321.0
4000.0,-318.0,-1024.0,27.0,-4000.0,1769.0,600.0,474.0
4000.0,-318.0,996.0,-69.0,-4000.0,2438.0,246.0,569.0
-4000.0,-11.0,204.0,-448.0,-4000.0,2359.0,-154.0,666.0
-4000.0,90.0,903.0,-141.0,-4000.0,805.0,-723.0,654.0
-4000.0,69.0,2030.0,-568.0,-4000.0,-398.0,-2017.0,601.0
-4000.0,13.0,3380.0,-1180.0,-4000.0,203.0,-3455.0,462.0
-4000.0,-60.0,3974.0,-1500.0,-4000.0,1063.0,-2549.0,159.0
920.0,29.0,2715.0,-1935.0,-4000.0,2124.0,-489.0,-28.0
4000.0,114.0,4000.0,-2015.0,-3905.0,3731.0,243.0,-5.0
4000.0,46.0,4000.0,-1887.0,-3051.0,4000.0,-72.0,116.0
330.0,-95.0,-1720.0,-1427.0,-2063.0,2308.0,-587.0,220.0
-2985.0,23.0,-4000.0,-1421.0,-999.0,1864.0,-17.0,352.0
-565.0,163.0,-4000.0,-1551.0,18.0,1323.0,27.0,397.0
3052.0,248.0,-4000.0,-1180.0,778.0,76.0,-1730.0,361.0
-771.0,280.0,-4000.0,-784.0,1592.0,791.0,-1914.0,397.0
-4000.0,124.0,-409.0,-376.0,2513.0,716.0,-1397.0,290.0
-3596.0,-47.0,3593.0,-87.0,3150.0,445.0,72.0,138.0
-4000.0,-181.0,4000.0,44.0,3476.0,40.0,2582.0,81.0
-4000.0,-144.0,3823.0,533.0,3788.0,-304.0,2843.0,-73.0
-3229.0,110.0,65.0,771.0,3855.0,458.0,1800.0,-232.0
1832.0,282.0,-49.0,858.0,3461.0,-506.0,376.0,-362.0
4000.0,182.0,-3536.0,1231.0,2760.0,-2574.0,-187.0,-284.0
4000.0,217.0,-4000.0,1501.0,1865.0,-2481.0,331.0,-232.0
4000.0,147.0,-4000.0,1618.0,1201.0,-261.0,2166.0,-55.0
4000.0,-96.0,-774.0,1155.0,456.0,929.0,4000.0,201.0
4000.0,-89.0,4000.0,714.0,-311.0,348.0,4000.0,90.0
4000.0,35.0,4000.0,894.0,-803.0,-1396.0,4000.0,7.0
4000.0,115.0,4000.0,1033.0,-1267.0,-1682.0,-2139.0,-21.0
4000.0,-78.0,2924.0,829.0,-1514.0,-1075.0,-4000.0,176.0
4000.0,-226.0,35.0,655.0,-1768.0,-737.0,-4000.0,515.0
-2826.0,-77.0,-13.0,341.0,-2057.0,-4.0,-4000.0,600.0
-4000.0,1.0,988.0,188.0,-2157.0,160.0,-1944.0,358.0
-4000.0,157.0,728.0,524.0,-2238.0,1083.0,2826.0,33.0
-4000.0,282.0,0.0,785.0,-2224.0,1799.0,2863.0,-144.0
-4000.0,78.0,-2542.0,512.0,-2160.0,1462.0,2843.0,-417.0
-4000.0,55.0,-1028.0,280.0,-2224.0,415.0,2364.0,-431.0
-4000.0,110.0,-151.0,569.0,-2187.0,33.0,220.0,-295.0
-4000.0,120.0,89.0,634.0,-2095.0,-320.0,-1441.0,-292.0
-4000.0,228.0,-154.0,467.0,-1823.0,-1069.0,-1497.0,-146.0
-4000.0,442.0,-292.0,345.0,-1729.0,-1172.0,-2172.0,-17.0
-4000.0,731.0,958.0,19.0,-1606.0,-1127.0,-1252.0,-161.0
-4000.0,794.0,1348.0,28.0,-1463.0,-450.0,1996.0,-146.0
635.0,672.0,1436.0,309.0,-1573.0,1669.0,1931.0,-161.0
4000.0,365.0,1544.0,429.0,-1441.0,3166.0,1013.0,-284.0
4000.0,38.0,1639.0,499.0,-1170.0,1929.0,-128.0,-142.0
4000.0,16.0,1574.0,51.0,-1058.0,749.0,-1136.0,-101.0
3314.0,-106.0,1680.0,-630.0,-1137.0,-651.0,-565.0,-43.0
3314.0,-271.0,1544.0,-914.0,-921.0,138.0,1314.0,-150.0
3314.0,-360.0,1562.0,-1154.0,-769.0,684.0,4000.0,-262.0
2284.0,-440.0,1544.0,-1092.0,-857.0,-128.0,4000.0,-79.0
3591.0,-440.0,1627.0,-935.0,-924.0,921.0,2125.0,11.0
4000.0,-476.0,1636.0,-874.0,-1012.0,1982.0,24.0,224.0
4000.0,-623.0,1549.0,-784.0,-1039.0,1721.0,-2251.0,409.0
4000.0,-618.0,1674.0,-190.0,-1072.0,-220.0,-2571.0,214.0
4000.0,-190.0,1627.0,1184.0,-1304.0,-846.0,-826.0,171.0
4000.0,102.0,1574.0,1749.0,-1820.0,-1070.0,-1781.0,176.0
4000.0,99.0,1478.0,1306.0,-3327.0,-1437.0,-3963.0,352.0
4000.0,-162.0,1379.0,1144.0,-4000.0,-2170.0,-4000.0,695.0
2322.0,-479.0,1249.0,1489.0,-4000.0,-2274.0,-4000.0,671.0
-1218.0,-418.0,1224.0,1314.0,-4000.0,-575.0,587.0,881.0
-3034.0,-375.0,1171.0,433.0,-4000.0,902.0,4000.0,991.0
586.0,-182.0,1314.0,603.0,-4000.0,532.0,4000.0,804.0
2523.0,22.0,1704.0,929.0,-4000.0,-1035.0,2890.0,540.0
-881.0,-60.0,2224.0,-414.0,-2688.0,-1263.0,980.0,373.0
-3360.0,-64.0,3171.0,-2000.0,-588.0,-1511.0,-522.0,329.0
-3311.0,-33.0,4000.0,-2924.0,1397.0,-1662.0,-1030.0,172.0
-4000.0,288.0,4000.0,-3364.0,3595.0,-899.0,1057.0,159.0
-4000.0,725.0,4000.0,-3364.0,4000.0,571.0,1711.0,-58.0
-4000.0,681.0,4000.0,-3338.0,4000.0,858.0,693.0,-99.0
-1866.0,508.0,3054.0,-2972.0,4000.0,205.0,543.0,-144.0
-1524.0,313.0,415.0,-2391.0,4000.0,-179.0,2114.0,-386.0
-1010.0,4.0,-4000.0,-1549.0,4000.0,-501.0,256.0,-417.0
3052.0,-247.0,-4000.0,-436.0,4000.0,-98.0,-3053.0,-321.0
4000.0,-414.0,-2513.0,121.0,4000.0,62.0,-3509.0,-203.0
1702.0,-570.0,-4000.0,301.0,4000.0,-48.0,-3236.0,-370.0
1051.0,-705.0,-4000.0,490.0,4000.0,412.0,-1702.0,-362.0
-205.0,-814.0,-4000.0,649.0,4000.0,368.0,-194.0,131.0
346.0,-916.0,-4000.0,858.0,4000.0,-326.0,-393.0,426.0
4000.0,-830.0,-4000.0,1143.0,4000.0,-107.0,-1141.0,588.0
4000.0,-770.0,-4000.0,1415.0,2320.0,221.0,-1071.0,992.0
4000.0,-552.0,-4000.0,1444.0,-1398.0,-84.0,-6.0,1308.0
-3619.0,-209.0,-3372.0,1501.0,-4000.0,-362.0,1326.0,1651.0
-4000.0,-171.0,-4000.0,2335.0,-4000.0,-262.0,1667.0,1750.0
-4000.0,-46.0,-3911.0,3361.0,-4000.0,-331.0,995.0,1533.0
-4000.0,-8.0,-1492.0,4000.0,-4000.0,-251.0,832.0,1150.0
-4000.0,157.0,98.0,4000.0,-4000.0,400.0,673.0,536.0
-4000.0,412.0,1104.0,4000.0,-4000.0,554.0,286.0,357.0
-4000.0,208.0,1379.0,3308.0,-4000.0,457.0,359.0,448.0
-1616.0,193.0,1571.0,2270.0,-4000.0,498.0,177.0,369.0
4000.0,411.0,1197.0,858.0,-4000.0,188.0,23.0,153.0
4000.0,359.0,694.0,-167.0,-4000.0,51.0,135.0,-175.0
4000.0,163.0,246.0,-2094.0,-4000.0,-149.0,445.0,-683.0
3525.0,-24.0,1249.0,-3699.0,-4000.0,-61.0,702.0,-1013.0
-2855.0,-54.0,2913.0,-4000.0,-4000.0,498.0,824.0,-1206.0
-4000.0,18.0,4000.0,-4000.0,-4000.0,693.0,563.0,-1445.0
-4000.0,134.0,3593.0,-4000.0,-4000.0,496.0,-307.0,-1672.0
-4000.0,215.0,1703.0,-4000.0,-4000.0,393.0,-630.0,-2049.0
-4000.0,294.0,4000.0,-4000.0,-3661.0,341.0,-774.0,-2253.0
-4000.0,521.0,4000.0,-3250.0,-3148.0,265.0,-912.0,-2165.0
-4000.0,621.0,4000.0,-2423.0,-2953.0,235.0,-450.0,-1790.0
-4000.0,672.0,4000.0,-1832.0,-2605.0,46.0,-64.0,-1396.0
1807.0,363.0,4000.0,-849.0,-3001.0,197.0,-233.0,-1325.0
3822.0,12.0,2917.0,48.0,-3701.0,343.0,-685.0,-1365.0
3525.0,95.0,-1732.0,793.0,-4000.0,376.0,-613.0,-1461.0
631.0,-44.0,-4000.0,1241.0,-4000.0,280.0,-676.0,-1534.0
651.0,-218.0,-4000.0,1607.0,-4000.0,167.0,-855.0,-1672.0
4000.0,-5.0,-4000.0,1783.0,-4000.0,271.0,-784.0,-1788.0
1634.0,326.0,-4000.0,1730.0,-4000.0,199.0,-522.0,-1697.0
-805.0,384.0,-4000.0,2022.0,-4000.0,70.0,288.0,-1325.0
3182.0,395.0,-4000.0,2186.0,-4000.0,-139.0,1052.0,-758.0
4000.0,485.0,-1974.0,2074.0,-4000.0,104.0,1353.0,-627.0
4000.0,521.0,644.0,1591.0,-4000.0,326.0,1330.0,-627.0
4000.0,418.0,2653.0,1371.0,-4000.0,348.0,1379.0,-638.0
1702.0,136.0,4000.0,1241.0,-4000.0,571.0,1149.0,-440.0
3070.0,-253.0,4000.0,1053.0,-4000.0,802.0,878.0,409.0
-212.0,-822.0,4000.0,1037.0,-4000.0,944.0,655.0,651.0
492.0,-1225.0,4000.0,974.0,-2986.0,541.0,532.0,629.0
-3360.0,-1052.0,4000.0,1025.0,-1267.0,368.0,523.0,961.0
-4000.0,-590.0,4000.0,950.0,296.0,411.0,308.0,1091.0
-4000.0,-281.0,3445.0,968.0,1840.0,237.0,164.0,890.0
-4000.0,79.0,-255.0,882.0,3541.0,339.0,120.0,279.0
-4000.0,211.0,-1746.0,754.0,4000.0,220.0,45.0,530.0
-4000.0,-44.0,-2692.0,622.0,4000.0,50.0,13.0,1586.0
-3799.0,-292.0,-1549.0,387.0,4000.0,44.0,227.0,1533.0
141.0,-502.0,296.0,337.0,4000.0,147.0,145.0,1077.0
3041.0,-602.0,-1406.0,439.0,4000.0,126.0,-30.0,988.0
2326.0,-621.0,-1618.0,341.0,4000.0,-26.0,-284.0,1411.0
3650.0,-562.0,-1452.0,-62.0,4000.0,-162.0,-603.0,2367.0
4000.0,-551.0,-3420.0,-481.0,4000.0,-314.0,-620.0,2748.0
4000.0,-556.0,-4000.0,-614.0,4000.0,-188.0,-574.0,3261.0
3171.0,-360.0,-1797.0,-427.0,4000.0,-84.0,-424.0,2739.0
2415.0,53.0,-1537.0,-260.0,4000.0,-76.0,-573.0,2219.0
2715.0,321.0,-4000.0,-348.0,4000.0,-207.0,-796.0,2640.0
626.0,451.0,-4000.0,-148.0,4000.0,-379.0,-729.0,2612.0
1677.0,587.0,-2169.0,39.0,4000.0,-442.0,-403.0,1437.0
1515.0,542.0,541.0,-321.0,4000.0,-455.0,-64.0,-476.0
216.0,572.0,-847.0,-273.0,4000.0,-342.0,78.0,-240.0
1435.0,663.0,-2008.0,-102.0,4000.0,-435.0,87.0,104.0
2092.0,790.0,-1263.0,-246.0,4000.0,-541.0,-21.0,-194.0
2874.0,770.0,-810.0,-429.0,3085.0,-643.0,-210.0,-649.0
4000.0,607.0,-316.0,-462.0,1930.0,-633.0,40.0,-1170.0
1897.0,666.0,-285.0,-266.0,953.0,-575.0,1007.0,-1518.0
-191.0,693.0,-414.0,38.0,-311.0,-651.0,1326.0,-1986.0
178.0,817.0,-113.0,-150.0,-1310.0,-598.0,604.0,-2865.0
-66.0,1193.0,-18.0,-621.0,-2421.0,-600.0,203.0,-3414.0
568.0,1583.0,-53.0,-874.0,-4000.0,-598.0,136.0,-1859.0
-775.0,1818.0,345.0,-1036.0,-4000.0,-639.0,12.0,-931.0
4000.0,1738.0,218.0,-746.0,-4000.0,-576.0,-124.0,-1615.0
4000.0,1648.0,241.0,-576.0,-4000.0,-419.0,-240.0,-1364.0
4000.0,1518.0,343.0,-336.0,-4000.0,-411.0,-134.0,417.0
4000.0,985.0,467.0,-258.0,-4000.0,-390.0,-63.0,1476.0
-2421.0,-64.0,490.0,-377.0,-4000.0,-393.0,2.0,1914.0
-3866.0,-1155.0,-29.0,-263.0,-4000.0,-304.0,-18.0,1252.0
3004.0,-1870.0,-225.0,-211.0,-4000.0,45.0,-82.0,955.0
24.0,-2816.0,-105.0,-43.0,-4000.0,449.0,-25.0,751.0
-4000.0,-3676.0,899.0,-23.0,-4000.0,687.0,28.0,-397.0
-4000.0,-3883.0,2795.0,-55.0,-4000.0,693.0,93.0,-366.0
-4000.0,-3148.0,3054.0,-24.0,-4000.0,433.0,87.0,-194.0
-3478.0,-2111.0,760.0,45.0,-4000.0,233.0,114.0,19.0
-4000.0,-1546.0,-1263.0,90.0,-4000.0,153.0,160.0,-883.0
-4000.0,-314.0,-357.0,183.0,-3988.0,102.0,152.0,-1671.0
-4000.0,933.0,-147.0,139.0,-3586.0,154.0,138.0,-599.0
-4000.0,1128.0,-1797.0,-143.0,-4000.0,109.0,66.0,1859.0
-4000.0,1063.0,-2416.0,-263.0,-4000.0,107.0,-24.0,4000.0
-4000.0,1360.0,-3303.0,-158.0,-4000.0,113.0,-208.0,4000.0
-2628.0,1766.0,-3539.0,34.0,-3767.0,24.0,-259.0,3209.0
3367.0,1323.0,-3290.0,-45.0,-4000.0,16.0,-52.0,1003.0
4000.0,908.0,-2782.0,-105.0,-4000.0,4.0,-29.0,-297.0
4000.0,1201.0,-906.0,47.0,-4000.0,65.0,-137.0,-1245.0
4000.0,1553.0,1347.0,157.0,-4000.0,141.0,-73.0,-1894.0
4000.0,1266.0,-768.0,171.0,-4000.0,207.0,78.0,-1265.0
3884.0,595.0,-1760.0,197.0,-4000.0,282.0,126.0,-549.0
2597.0,235.0,-454.0,207.0,-4000.0,250.0,22.0,2225.0
4000.0,-45.0,-1231.0,197.0,-4000.0,283.0,58.0,4000.0
4000.0,-570.0,337.0,246.0,-4000.0,299.0,48.0,3487.0
3884.0,-1624.0,-76.0,140.0,-4000.0,271.0,-74.0,1912.0
2597.0,-1837.0,455.0,107.0,-4000.0,329.0,-104.0,1122.0
1606.0,-1030.0,2224.0,97.0,-4000.0,336.0,-159.0,2544.0
1832.0,-495.0,3119.0,60.0,-3510.0,368.0,-151.0,2371.0
1767.0,-781.0,2159.0,16.0,-3054.0,403.0,-207.0,1437.0
961.0,-1025.0,466.0,-14.0,-443.0,315.0,-287.0,825.0
1411.0,-505.0,2471.0,-74.0,3989.0,246.0,-279.0,-181.0
2028.0,-393.0,4000.0,-223.0,4000.0,104.0,-284.0,-927.0
1791.0,-125.0,4000.0,-208.0,2842.0,19.0,-250.0,-2004.0
1832.0,40.0,4000.0,-116.0,348.0,42.0,-224.0,-2347.0
1441.0,-18.0,-4000.0,5.0,-2296.0,24.0,-182.0,-2488.0
900.0,-606.0,-4000.0,-206.0,-4000.0,67.0,-167.0,-2193.0
-322.0,-1570.0,-4000.0,-376.0,-4000.0,114.0,-161.0,-1788.0
-1560.0,-2204.0,-4000.0,134.0,-4000.0,55.0,-141.0,-1526.0
-2219.0,-2928.0,-3991.0,439.0,-4000.0,37.0,49.0,-1671.0
-2302.0,-2423.0,-2981.0,144.0,-1978.0,89.0,170.0,-2122.0
-2177.0,-1460.0,-1813.0,30.0,-2277.0,16.0,69.0,-2519.0
-2773.0,-383.0,-274.0,-119.0,-2676.0,-57.0,233.0,-3667.0
-2767.0,982.0,1835.0,-293.0,-1737.0,-18.0,348.0,-4000.0
-1286.0,1917.0,1574.0,-348.0,-436.0,1.0,409.0,-3995.0
-544.0,2138.0,2070.0,-355.0,-443.0,22.0,637.0,-4000.0
-960.0,1377.0,2460.0,-306.0,-686.0,58.0,464.0,-4000.0
-1531.0,1896.0,2718.0,-348.0,1656.0,71.0,76.0,-4000.0
-2721.0,3966.0,982.0,-265.0,1604.0,48.0,34.0,-4000.0
-2306.0,4000.0,-1003.0,-252.0,1452.0,16.0,62.0,-4000.0
-901.0,4000.0,-393.0,-225.0,3020.0,11.0,12.0,-4000.0
1254.0,4000.0,7.0,-163.0,4000.0,7.0,-42.0,-3527.0
4000.0,2361.0,1692.0,-115.0,4000.0,-43.0,120.0,-744.0
4000.0,1128.0,2194.0,-15.0,3837.0,-81.0,301.0,2835.0
3780.0,-265.0,-320.0,-17.0,4000.0,-82.0,236.0,4000.0
1429.0,-2033.0,-3018.0,-4.0,3464.0,-68.0,155.0,4000.0
1637.0,-3278.0,-2940.0,18.0,3877.0,-26.0,123.0,4000.0
1246.0,-4000.0,-2038.0,7.0,4000.0,-45.0,16.0,4000.0
1234.0,-4000.0,-950.0,-44.0,4000.0,-86.0,-140.0,4000.0
2846.0,-4000.0,345.0,-69.0,4000.0,-111.0,-215.0,4000.0
4000.0,-4000.0,1379.0,-61.0,4000.0,-127.0,-331.0,4000.0
4000.0,-4000.0,2978.0,75.0,4000.0,-178.0,-475.0,4000.0
3713.0,-4000.0,2148.0,59.0,4000.0,-255.0,-533.0,4000.0
885.0,-4000.0,364.0,-98.0,4000.0,-196.0,-379.0,3469.0
-1091.0,-4000.0,-82.0,-84.0,4000.0,-161.0,-244.0,2624.0
-2888.0,-3011.0,5.0,1.0,4000.0,-111.0,-247.0,2013.0
-3675.0,-1208.0,400.0,47.0,4000.0,-41.0,-216.0,1388.0
-4000.0,333.0,764.0,-44.0,4000.0,-24.0,-204.0,1260.0
-4000.0,1374.0,801.0,74.0,4000.0,24.0,-60.0,1150.0
-4000.0,2089.0,-413.0,137.0,4000.0,38.0,71.0,1346.0
-4000.0,2624.0,-1678.0,20.0,4000.0,63.0,339.0,312.0
-4000.0,3192.0,-2462.0,-10.0,4000.0,20.0,343.0,-862.0
-3218.0,3878.0,-2383.0,-20.0,4000.0,-94.0,-48.0,-1534.0
-714.0,4000.0,-1171.0,154.0,4000.0,-98.0,43.0,-2231.0
2480.0,4000.0,-1101.0,129.0,4000.0,-104.0,-65.0,-3007.0
3378.0,4000.0,-113.0,113.0,4000.0,-182.0,-680.0,-3634.0
1413.0,4000.0,577.0,142.0,4000.0,-185.0,-1116.0,-3708.0
-539.0,4000.0,654.0,84.0,4000.0,-154.0,-927.0,-4000.0
-2148.0,3893.0,1249.0,229.0,4000.0,-94.0,-420.0,-4000.0
-3335.0,3441.0,1769.0,155.0,-1449.0,-28.0,-182.0,-2617.0
-4000.0,3181.0,2483.0,48.0,-4000.0,-3.0,-104.0,-280.0
-4000.0,3079.0,1835.0,-53.0,-4000.0,6.0,-122.0,1077.0
-4000.0,2738.0,982.0,-205.0,-4000.0,-6.0,124.0,1242.0
-4000.0,2287.0,223.0,-328.0,-4000.0,33.0,404.0,788.0
-4000.0,2090.0,-108.0,-233.0,-4000.0,62.0,416.0,-646.0
-331.0,1908.0,598.0,-53.0,-4000.0,91.0,345.0,-1135.0
1832.0,1618.0,671.0,2.0,-4000.0,132.0,290.0,-1271.0
1743.0,1206.0,-168.0,150.0,-4000.0,160.0,250.0,-1856.0
2092.0,976.0,158.0,193.0,-4000.0,281.0,217.0,-2259.0
1950.0,790.0,528.0,174.0,-4000.0,341.0,144.0,-2716.0
2545.0,652.0,86.0,209.0,-4000.0,396.0,6.0,-3198.0
2597.0,527.0,231.0,337.0,-4000.0,490.0,-176.0,-3824.0
1897.0,403.0,207.0,467.0,-4000.0,485.0,-467.0,-4000.0
2650.0,327.0,364.0,429.0,-4000.0,404.0,-727.0,-4000.0
3265.0,186.0,309.0,345.0,-4000.0,354.0,-1136.0,-4000.0
3265.0,21.0,243.0,326.0,-4000.0,208.0,-2009.0,-4000.0
3721.0,-104.0,162.0,290.0,-4000.0,-52.0,-3751.0,-4000.0
3497.0,-134.0,-254.0,207.0,-4000.0,-95.0,-4000.0,-4000.0
1594.0,-105.0,-781.0,207.0,-4000.0,47.0,-4000.0,-4000.0
-96.0,-193.0,-1231.0,210.0,-4000.0,36.0,-4000.0,-4000.0
-1162.0,-359.0,-682.0,168.0,-4000.0,-57.0,-4000.0,-4000.0
-700.0,-473.0,520.0,245.0,-3274.0,124.0,-666.0,-3926.0
342.0,-314.0,1497.0,400.0,-1797.0,415.0,3411.0,-2941.0
-155.0,-139.0,1690.0,430.0,-150.0,506.0,4000.0,-1959.0
-935.0,-403.0,1691.0,447.0,1032.0,329.0,4000.0,-971.0
-396.0,-761.0,1444.0,417.0,2428.0,303.0,4000.0,-26.0
-142.0,-684.0,741.0,309.0,3529.0,217.0,4000.0,874.0
-960.0,-667.0,695.0,215.0,4000.0,25.0,4000.0,1780.0
-824.0,-943.0,385.0,15.0,4000.0,-80.0,1931.0,2507.0
-844.0,-1069.0,171.0,-96.0,4000.0,-94.0,-2687.0,3404.0
-407.0,-1090.0,1025.0,-83.0,4000.0,-52.0,-4000.0,4000.0
212.0,-1182.0,592.0,-244.0,4000.0,-110.0,-4000.0,4000.0
514.0,-1525.0,74.0,-448.0,4000.0,-63.0,-4000.0,4000.0
1108.0,-1785.0,61.0,-511.0,4000.0,-190.0,-4000.0,4000.0
1767.0,-1785.0,-629.0,-507.0,4000.0,-200.0,-3538.0,4000.0
2549.0,-1735.0,-519.0,-487.0,4000.0,-10.0,-3053.0,4000.0
2728.0,-1814.0,-512.0,-478.0,2425.0,-84.0,-2793.0,4000.0
1869.0,-1966.0,-628.0,-418.0,701.0,-318.0,-2597.0,4000.0
725.0,-2036.0,-66.0,-409.0,-1267.0,-531.0,-2369.0,4000.0
325.0,-1737.0,695.0,-422.0,-3197.0,-456.0,-1887.0,4000.0
-260.0,-1441.0,785.0,-388.0,-3844.0,-468.0,-1652.0,4000.0
-449.0,-1283.0,-572.0,-359.0,-3380.0,-459.0,-1258.0,4000.0
725.0,-1069.0,-957.0,-359.0,-2341.0,-128.0,-1163.0,4000.0
2223.0,-1090.0,-643.0,-311.0,-1512.0,214.0,-912.0,4000.0
1897.0,-1182.0,-641.0,-285.0,-1638.0,321.0,-548.0,2819.0
-9.0,-1095.0,-108.0,-306.0,-2338.0,24.0,-182.0,1012.0
-2043.0,-725.0,-10.0,-227.0,-3185.0,-12.0,-159.0,-305.0
-3164.0,-570.0,-164.0,-214.0,-3754.0,-73.0,-22.0,-685.0
-2545.0,-757.0,-792.0,-245.0,-3917.0,-100.0,177.0,-508.0
304.0,-665.0,-2086.0,-297.0,-4000.0,233.0,268.0,564.0
2517.0,-257.0,-2216.0,-265.0,-3929.0,374.0,655.0,1859.0
-392.0,105.0,-182.0,-76.0,-3964.0,380.0,767.0,2029.0
-3554.0,-104.0,3054.0,-56.0,-4000.0,135.0,884.0,1780.0
-3901.0,77.0,4000.0,-123.0,-3689.0,144.0,1033.0,601.0
-2761.0,536.0,3756.0,-26.0,-3262.0,126.0,1079.0,-534.0
-1769.0,508.0,-328.0,16.0,-2753.0,90.0,1129.0,-883.0
-1931.0,410.0,-4000.0,-53.0,-2277.0,130.0,1199.0,-1430.0
-2061.0,281.0,-4000.0,-66.0,-1898.0,94.0,1072.0,-1998.0
-1547.0,282.0,-4000.0,-123.0,-1795.0,185.0,995.0,-2698.0
-163.0,359.0,-2763.0,-133.0,-1915.0,155.0,942.0,-3256.0
86.0,435.0,-2940.0,5.0,-1980.0,176.0,889.0,-3397.0
543.0,502.0,-2589.0,77.0,-2121.0,165.0,795.0,-3387.0
1000.0,583.0,-1347.0,207.0,-2400.0,142.0,637.0,-3333.0
834.0,652.0,-631.0,203.0,-2627.0,63.0,687.0,-3504.0
1104.0,634.0,36.0,131.0,-3185.0,8.0,598.0,-3669.0
1181.0,631.0,105.0,106.0,-3444.0,47.0,362.0,-3708.0
1307.0,621.0,-585.0,-161.0,-3315.0,72.0,151.0,-3844.0
1346.0,582.0,-429.0,-302.0,-3197.0,67.0,67.0,-3969.0
1299.0,583.0,-716.0,-373.0,-2953.0,122.0,31.0,-3773.0
1124.0,589.0,-563.0,-299.0,-2572.0,300.0,8.0,-3397.0
1108.0,508.0,-324.0,-20.0,-1442.0,132.0,-48.0,-2440.0
1059.0,460.0,-43.0,115.0,-343.0,-24.0,-86.0,-2088.0
973.0,420.0,606.0,209.0,118.0,-92.0,-72.0,-2309.0
854.0,447.0,1301.0,215.0,479.0,-159.0,-71.0,-1970.0
660.0,424.0,1757.0,188.0,737.0,11.0,-135.0,-1595.0
538.0,355.0,1609.0,142.0,1775.0,70.0,-241.0,-928.0
369.0,381.0,1224.0,91.0,3074.0,290.0,-200.0,-401.0
80.0,395.0,1237.0,75.0,4000.0,497.0,-159.0,442.0
-274.0,359.0,1184.0,50.0,4000.0,557.0,-241.0,955.0
-527.0,309.0,807.0,95.0,4000.0,657.0,-228.0,1177.0
-632.0,221.0,653.0,78.0,4000.0,749.0,-113.0,1085.0
-616.0,77.0,597.0,120.0,4000.0,439.0,21.0,707.0
-575.0,87.0,923.0,187.0,4000.0,-110.0,-37.0,474.0
-159.0,176.0,1249.0,209.0,4000.0,-117.0,-203.0,123.0
98.0,164.0,1368.0,191.0,4000.0,-67.0,-294.0,-58.0
-111.0,-23.0,1375.0,150.0,4000.0,-119.0,-247.0,-301.0
-181.0,-114.0,1452.0,164.0,4000.0,-262.0,-190.0,-199.0
-164.0,-26.0,1835.0,126.0,4000.0,83.0,-387.0,-218.0
-153.0,-74.0,1953.0,17.0,4000.0,425.0,-532.0,-61.0
-127.0,-18.0,1627.0,-71.0,4000.0,-149.0,-428.0,216.0
-123.0,5.0,1314.0,18.0,2428.0,-642.0,-344.0,470.0
-47.0,90.0,1021.0,96.0,375.0,-741.0,-363.0,742.0
102.0,264.0,858.0,22.0,-1272.0,-200.0,-464.0,634.0
393.0,363.0,773.0,69.0,-1729.0,-555.0,-639.0,739.0
651.0,420.0,628.0,80.0,-847.0,-651.0,-676.0,863.0
595.0,277.0,801.0,32.0,-2009.0,-575.0,-378.0,862.0
346.0,66.0,979.0,69.0,-3445.0,-1135.0,208.0,609.0
-35.0,-23.0,671.0,90.0,-2977.0,-672.0,680.0,188.0
-426.0,43.0,425.0,54.0,-1446.0,-611.0,496.0,-386.0
-765.0,-91.0,830.0,-2.0,-29.0,-409.0,300.0,-1213.0
-702.0,-169.0,988.0,-31.0,766.0,-436.0,376.0,-1839.0
-418.0,-338.0,524.0,-60.0,-785.0,-428.0,209.0,-2128.0
-453.0,-763.0,-125.0,-30.0,-2715.0,-323.0,48.0,-2491.0
-584.0,-797.0,-1214.0,50.0,-2341.0,-286.0,-100.0,-2558.0
-654.0,-570.0,-2110.0,40.0,-862.0,-75.0,-221.0,-2256.0
-523.0,-414.0,-2094.0,-18.0,1710.0,-29.0,-241.0,-2519.0
-575.0,-456.0,-1544.0,-49.0,2695.0,177.0,-241.0,-2995.0
-388.0,-426.0,-611.0,0.0,3085.0,195.0,-154.0,-2555.0
-55.0,-287.0,-631.0,80.0,3682.0,384.0,-87.0,-1325.0
212.0,-108.0,-1302.0,-9.0,4000.0,353.0,-159.0,-536.0
1051.0,13.0,-1400.0,-94.0,4000.0,380.0,-279.0,-90.0
1625.0,67.0,-1106.0,-48.0,4000.0,433.0,-214.0,296.0
855.0,111.0,-465.0,22.0,3790.0,466.0,-92.0,686.0
-83.0,110.0,-145.0,-36.0,3215.0,537.0,111.0,1122.0
-98.0,159.0,187.0,-45.0,3150.0,526.0,341.0,1541.0
-69.0,214.0,520.0,75.0,3529.0,571.0,311.0,2348.0
509.0,225.0,443.0,43.0,4000.0,492.0,228.0,1912.0
1356.0,209.0,-56.0,8.0,3269.0,496.0,225.0,1515.0
888.0,270.0,-210.0,42.0,3463.0,303.0,368.0,1728.0
-197.0,294.0,-92.0,113.0,2254.0,-41.0,571.0,1399.0
-979.0,254.0,-912.0,138.0,857.0,-238.0,445.0,1437.0
-1175.0,228.0,-1635.0,111.0,3281.0,-73.0,214.0,1176.0
-850.0,180.0,-1468.0,66.0,4000.0,168.0,102.0,1042.0
-492.0,213.0,-490.0,19.0,4000.0,463.0,45.0,1065.0
-142.0,205.0,564.0,-65.0,4000.0,831.0,28.0,914.0
-750.0,175.0,858.0,-226.0,4000.0,793.0,168.0,786.0
-1039.0,160.0,-178.0,-258.0,4000.0,403.0,424.0,739.0
-771.0,125.0,-906.0,-188.0,4000.0,248.0,391.0,629.0
-506.0,106.0,-617.0,-126.0,4000.0,246.0,386.0,474.0
-535.0,86.0,-230.0,-137.0,4000.0,36.0,576.0,591.0
-1201.0,44.0,455.0,-157.0,3916.0,112.0,349.0,426.0
-1010.0,-60.0,59.0,-200.0,3281.0,19.0,-26.0,286.0
-890.0,-38.0,-1084.0,-206.0,3215.0,-83.0,-7.0,252.0
-468.0,4.0,-1864.0,-113.0,3281.0,-115.0,86.0,189.0
-81.0,-4.0,-1813.0,-3.0,3215.0,-362.0,165.0,399.0
-32.0,-41.0,-1137.0,39.0,2504.0,-459.0,348.0,303.0
202.0,-106.0,-828.0,23.0,1279.0,-591.0,492.0,-31.0
166.0,-102.0,-328.0,-14.0,1213.0,-615.0,628.0,-2.0
263.0,-94.0,-76.0,-44.0,771.0,-615.0,506.0,-63.0
559.0,-105.0,-375.0,39.0,-256.0,-550.0,339.0,74.0
2080.0,-144.0,-350.0,56.0,-973.0,-510.0,319.0,161.0
3330.0,-171.0,172.0,38.0,-1318.0,-459.0,97.0,-161.0
2287.0,-165.0,272.0,-16.0,-1768.0,-385.0,107.0,-479.0
896.0,-142.0,385.0,-31.0,-2122.0,-326.0,337.0,-618.0
-41.0,-122.0,996.0,54.0,-2252.0,-280.0,421.0,-431.0
-1031.0,-153.0,1314.0,49.0,-2400.0,-383.0,432.0,-563.0
11.0,-183.0,1952.0,-34.0,-2995.0,-354.0,416.0,-852.0
1356.0,-183.0,2289.0,-51.0,-3517.0,-267.0,506.0,-753.0
71.0,-144.0,1249.0,-40.0,-2866.0,-180.0,571.0,-455.0
-1921.0,-164.0,-957.0,-84.0,-3456.0,-9.0,637.0,-163.0
-2244.0,-112.0,-2092.0,-167.0,-4000.0,115.0,725.0,27.0
-2191.0,-23.0,-1767.0,-220.0,-4000.0,42.0,506.0,67.0
-1996.0,-35.0,-938.0,-220.0,-4000.0,23.0,101.0,-64.0
-1604.0,-14.0,-239.0,-225.0,-4000.0,54.0,-208.0,-31.0
-1267.0,-68.0,-251.0,-241.0,-4000.0,32.0,-399.0,-30.0
-1170.0,-98.0,-285.0,-260.0,-4000.0,154.0,-477.0,-46.0
-1984.0,-58.0,-476.0,-170.0,-4000.0,480.0,-410.0,-76.0
-1045.0,-19.0,-433.0,-139.0,-4000.0,725.0,-338.0,-218.0
3.0,24.0,-37.0,-162.0,-4000.0,716.0,-351.0,-140.0
342.0,36.0,349.0,-97.0,-4000.0,627.0,-398.0,95.0
624.0,7.0,573.0,-77.0,-4000.0,471.0,-345.0,206.0
692.0,-3.0,495.0,-20.0,-4000.0,394.0,-188.0,66.0
834.0,-8.0,402.0,-11.0,-4000.0,311.0,-151.0,108.0
745.0,-23.0,183.0,39.0,-4000.0,288.0,-139.0,148.0
886.0,-3.0,130.0,90.0,-4000.0,319.0,-108.0,200.0
1045.0,-18.0,325.0,92.0,-4000.0,358.0,-190.0,344.0
1441.0,-42.0,450.0,142.0,-4000.0,415.0,-275.0,157.0
1085.0,-55.0,585.0,152.0,-4000.0,327.0,-459.0,127.0
654.0,-25.0,490.0,109.0,-4000.0,183.0,-613.0,54.0
660.0,-1.0,284.0,110.0,-4000.0,137.0,-565.0,-58.0
574.0,0.0,190.0,134.0,-4000.0,78.0,-415.0,26.0
778.0,18.0,-71.0,120.0,-4000.0,-16.0,-241.0,-317.0
835.0,17.0,-159.0,116.0,-4000.0,-25.0,-184.0,-523.0
668.0,44.0,-187.0,120.0,-4000.0,-87.0,-56.0,-466.0
-17.0,26.0,-187.0,134.0,-3802.0,-214.0,68.0,-455.0
-476.0,-26.0,-125.0,163.0,-3817.0,-277.0,138.0,612.0
-354.0,-39.0,-98.0,204.0,-3803.0,-272.0,102.0,1156.0
-368.0,-5.0,48.0,223.0,-3521.0,-146.0,34.0,621.0
-78.0,-5.0,84.0,207.0,-2806.0,71.0,-35.0,590.0
169.0,16.0,158.0,211.0,-1854.0,118.0,-209.0,426.0
514.0,64.0,344.0,199.0,-1239.0,99.0,-355.0,432.0
973.0,37.0,497.0,130.0,-460.0,107.0,-530.0,449.0
1625.0,45.0,533.0,12.0,213.0,43.0,-639.0,341.0
2712.0,56.0,646.0,-198.0,592.0,-214.0,-652.0,308.0
2393.0,95.0,215.0,-314.0,1062.0,-541.0,-658.0,283.0
673.0,138.0,-190.0,-265.0,1644.0,-680.0,-607.0,212.0
-771.0,75.0,-168.0,-228.0,2254.0,-875.0,-485.0,95.0
-1202.0,87.0,-465.0,-220.0,2748.0,-977.0,-428.0,131.0
-850.0,85.0,-304.0,-160.0,2711.0,-532.0,-391.0,62.0
-974.0,92.0,-168.0,-49.0,2578.0,-67.0,-282.0,60.0
-2435.0,129.0,-282.0,-10.0,3037.0,143.0,-267.0,73.0
-3543.0,105.0,-651.0,54.0,3733.0,-25.0,-353.0,117.0
-3489.0,152.0,-1036.0,77.0,3606.0,-399.0,-363.0,-128.0
-2436.0,170.0,-596.0,71.0,3346.0,-358.0,-280.0,-627.0
-1072.0,152.0,-240.0,98.0,3399.0,-149.0,-157.0,-1038.0
-506.0,152.0,-76.0,97.0,3167.0,103.0,-71.0,-1143.0
-21.0,140.0,73.0,99.0,2504.0,77.0,45.0,-1142.0
56.0,59.0,115.0,81.0,1601.0,225.0,259.0,-1148.0
-28.0,13.0,225.0,68.0,837.0,365.0,355.0,-797.0
30.0,15.0,269.0,93.0,142.0,243.0,433.0,-687.0
361.0,-31.0,316.0,93.0,-88.0,194.0,365.0,-818.0
618.0,-44.0,299.0,102.0,-476.0,152.0,161.0,-620.0
573.0,-41.0,342.0,81.0,-1584.0,206.0,181.0,25.0
680.0,-50.0,317.0,30.0,-2645.0,73.0,209.0,1411.0
635.0,-69.0,169.0,-7.0,-3066.0,49.0,68.0,1859.0
608.0,-95.0,-24.0,-6.0,-3868.0,64.0,-179.0,1521.0
530.0,-69.0,-185.0,81.0,-4000.0,13.0,-261.0,1272.0
514.0,33.0,-171.0,142.0,-4000.0,298.0,-139.0,680.0
451.0,50.0,-140.0,197.0,-3445.0,525.0,-83.0,1207.0
201.0,20.0,-205.0,207.0,-2794.0,353.0,-143.0,941.0
103.0,15.0,-54.0,240.0,-1534.0,248.0,-162.0,355.0
69.0,-30.0,523.0,268.0,-295.0,99.0,-101.0,332.0
36.0,-90.0,964.0,185.0,-327.0,10.0,20.0,-362.0
76.0,-105.0,1127.0,149.0,902.0,224.0,200.0,-194.0
228.0,-97.0,1224.0,-82.0,2374.0,431.0,402.0,-121.0
398.0,-128.0,903.0,-401.0,2882.0,534.0,380.0,210.0
538.0,-114.0,447.0,-450.0,2810.0,276.0,184.0,38.0
798.0,-118.0,293.0,-571.0,2320.0,48.0,129.0,-447.0
1283.0,-169.0,190.0,-684.0,1272.0,-107.0,111.0,-362.0
1364.0,-141.0,179.0,-636.0,1148.0,-310.0,197.0,-521.0
1372.0,-164.0,183.0,-520.0,2363.0,-310.0,294.0,-589.0
1606.0,-167.0,160.0,-417.0,2448.0,-399.0,298.0,-775.0
1234.0,-78.0,70.0,-416.0,1213.0,-485.0,228.0,-605.0
954.0,-85.0,-139.0,-277.0,-877.0,-326.0,25.0,-496.0
1659.0,-78.0,-104.0,-97.0,-1820.0,-42.0,64.0,-781.0
1950.0,-15.0,-151.0,-76.0,-1607.0,110.0,219.0,-715.0
430.0,-36.0,-437.0,-115.0,-1117.0,273.0,362.0,-608.0
-1045.0,8.0,-538.0,-79.0,837.0,498.0,661.0,-496.0
-2220.0,37.0,-169.0,-22.0,3127.0,603.0,1119.0,86.0
-2958.0,43.0,-37.0,-52.0,4000.0,390.0,1267.0,308.0
-2280.0,173.0,79.0,-86.0,4000.0,36.0,1205.0,241.0
-1866.0,157.0,360.0,-63.0,4000.0,-116.0,1214.0,43.0
-1986.0,24.0,92.0,1.0,4000.0,84.0,920.0,96.0
-1950.0,11.0,-53.0,96.0,4000.0,406.0,702.0,174.0
-1096.0,33.0,125.0,243.0,4000.0,364.0,687.0,-401.0
-555.0,22.0,129.0,394.0,4000.0,396.0,681.0,-679.0
-327.0,20.0,61.0,548.0,4000.0,386.0,616.0,-358.0
122.0,33.0,170.0,598.0,4000.0,194.0,666.0,261.0
267.0,18.0,1110.0,515.0,4000.0,146.0,702.0,727.0
530.0,10.0,3971.0,402.0,1201.0,129.0,576.0,569.0
530.0,-19.0,4000.0,290.0,748.0,123.0,628.0,674.0
595.0,-10.0,4000.0,120.0,2492.0,56.0,622.0,1399.0
550.0,26.0,4000.0,-263.0,3334.0,69.0,391.0,1698.0
495.0,77.0,-1732.0,-565.0,3346.0,183.0,268.0,1371.0
495.0,99.0,-4000.0,-636.0,4000.0,142.0,140.0,760.0
462.0,80.0,-4000.0,-625.0,4000.0,-146.0,-77.0,569.0
465.0,58.0,-4000.0,-450.0,4000.0,-137.0,-268.0,583.0
428.0,18.0,-2721.0,-366.0,4000.0,-14.0,-644.0,596.0
424.0,27.0,-3042.0,-198.0,4000.0,-149.0,-1029.0,471.0
351.0,60.0,-3155.0,-6.0,4000.0,-289.0,-1468.0,108.0
342.0,48.0,-4000.0,94.0,4000.0,-548.0,-1710.0,112.0
360.0,58.0,-4000.0,248.0,4000.0,-783.0,-1690.0,129.0
489.0,36.0,-3783.0,361.0,4000.0,-676.0,-1377.0,119.0
525.0,-21.0,-1797.0,280.0,4000.0,-586.0,-685.0,-226.0
683.0,-50.0,-135.0,168.0,4000.0,-645.0,-598.0,-548.0
994.0,-86.0,-688.0,258.0,3281.0,-535.0,-811.0,-679.0
1194.0,-78.0,242.0,228.0,2513.0,-169.0,-620.0,-1013.0
1376.0,-45.0,1639.0,229.0,2578.0,333.0,-576.0,-1339.0
1150.0,-18.0,3137.0,199.0,1733.0,628.0,-399.0,-1672.0
346.0,31.0,2616.0,106.0,-1442.0,749.0,-284.0,-1632.0
-510.0,46.0,-532.0,75.0,-2953.0,725.0,-156.0,-1534.0
-844.0,-27.0,-230.0,99.0,-4000.0,471.0,-16.0,-1746.0
-1131.0,-109.0,1822.0,124.0,-4000.0,-199.0,-235.0,-2259.0
-1343.0,-89.0,4000.0,-29.0,-4000.0,-845.0,-151.0,-3203.0
-1170.0,-75.0,4000.0,-121.0,-4000.0,-855.0,-123.0,-3593.0
-427.0,-118.0,4000.0,-130.0,-4000.0,-620.0,-137.0,-3066.0
-79.0,-110.0,4000.0,-143.0,-4000.0,274.0,-123.0,-2722.0
-508.0,-97.0,-4000.0,-173.0,-4000.0,1214.0,-151.0,-2478.0
-739.0,-71.0,-4000.0,-128.0,-4000.0,1148.0,-82.0,-2876.0
-1235.0,30.0,-4000.0,-68.0,-4000.0,725.0,-26.0,-3138.0
-818.0,106.0,-4000.0,-84.0,-4000.0,8.0,-22.0,-2259.0
151.0,-134.0,-4000.0,23.0,-4000.0,-472.0,-90.0,-1200.0
595.0,-248.0,2095.0,190.0,-1833.0,-665.0,9.0,-370.0
-201.0,-26.0,4000.0,132.0,-1951.0,-651.0,88.0,-797.0
-1430.0,-12.0,4000.0,75.0,-4000.0,-253.0,102.0,-1671.0
-1088.0,50.0,-2188.0,238.0,-4000.0,23.0,148.0,-2293.0
-193.0,31.0,-4000.0,113.0,-2676.0,213.0,203.0,-2558.0
1476.0,70.0,-4000.0,-110.0,-4000.0,180.0,294.0,-2580.0
1702.0,134.0,-4000.0,-134.0,-4000.0,5.0,315.0,-2682.0
1181.0,42.0,-4000.0,-151.0,-4000.0,-106.0,303.0,-1681.0
2028.0,74.0,-4000.0,72.0,-4000.0,-55.0,336.0,-134.0
2287.0,-14.0,-4000.0,187.0,-4000.0,16.0,346.0,1568.0
1755.0,-107.0,-4000.0,-17.0,-4000.0,-30.0,472.0,3275.0
-942.0,-145.0,-4000.0,-158.0,-2741.0,-118.0,554.0,4000.0
-2476.0,-160.0,2070.0,-47.0,-2318.0,-40.0,107.0,4000.0
-2631.0,-105.0,3202.0,55.0,-3274.0,185.0,-298.0,4000.0
-1947.0,18.0,253.0,-174.0,-4000.0,311.0,-172.0,4000.0
-551.0,4.0,-389.0,-250.0,-4000.0,293.0,49.0,4000.0
-850.0,60.0,2095.0,-282.0,-4000.0,69.0,-33.0,4000.0
-749.0,114.0,4000.0,-348.0,-4000.0,-120.0,-120.0,4000.0
-226.0,-6.0,4000.0,-344.0,-4000.0,-232.0,93.0,3325.0
147.0,10.0,4000.0,-172.0,-2935.0,-182.0,189.0,4000.0
-1140.0,29.0,4000.0,-101.0,-1729.0,-37.0,259.0,4000.0
-1546.0,15.0,4000.0,-258.0,-1398.0,126.0,266.0,4000.0
-702.0,-57.0,4000.0,-261.0,-3456.0,406.0,233.0,3096.0
-1096.0,-21.0,4000.0,-234.0,-4000.0,628.0,238.0,3031.0
-909.0,15.0,153.0,-282.0,-4000.0,685.0,184.0,1639.0
-1365.0,0.0,450.0,-401.0,-4000.0,506.0,280.0,1026.0
-1300.0,85.0,-4000.0,-352.0,-3001.0,207.0,261.0,1964.0
-282.0,168.0,-4000.0,-171.0,3476.0,-51.0,343.0,-869.0
325.0,209.0,-4000.0,56.0,4000.0,-199.0,352.0,-3669.0
762.0,160.0,-4000.0,195.0,4000.0,-228.0,283.0,-4000.0
589.0,156.0,-4000.0,91.0,3916.0,-77.0,486.0,-4000.0
618.0,132.0,-4000.0,366.0,737.0,75.0,427.0,-4000.0
920.0,114.0,-4000.0,558.0,1313.0,114.0,183.0,-4000.0
1311.0,143.0,-2110.0,574.0,1344.0,19.0,-80.0,-4000.0
1181.0,105.0,-1667.0,751.0,1474.0,-86.0,-241.0,-4000.0
912.0,99.0,-1347.0,784.0,2165.0,-62.0,-200.0,-3923.0
537.0,63.0,1794.0,695.0,4000.0,-127.0,-235.0,-2747.0
176.0,-18.0,3971.0,289.0,4000.0,-61.0,-314.0,-2128.0
177.0,-16.0,4000.0,8.0,4000.0,124.0,-363.0,-305.0
367.0,-8.0,4000.0,-98.0,4000.0,303.0,-238.0,2689.0
725.0,30.0,4000.0,7.0,4000.0,469.0,-27.0,4000.0
569.0,74.0,4000.0,-7.0,4000.0,315.0,151.0,4000.0
447.0,51.0,2587.0,-78.0,4000.0,96.0,311.0,4000.0
174.0,52.0,4000.0,-45.0,4000.0,49.0,363.0,4000.0
-96.0,5.0,4000.0,-326.0,4000.0,0.0,348.0,2835.0
-26.0,-20.0,4000.0,-371.0,2419.0,10.0,294.0,1195.0
15.0,-32.0,4000.0,-453.0,-2550.0,57.0,161.0,369.0
33.0,-83.0,-4000.0,-580.0,-4000.0,12.0,-30.0,-1013.0
-74.0,-100.0,-4000.0,-702.0,-4000.0,-144.0,-200.0,-3414.0
-85.0,-157.0,-4000.0,-849.0,-483.0,-318.0,-313.0,-4000.0
-45.0,-216.0,-4000.0,-978.0,3201.0,-394.0,-290.0,-4000.0
-67.0,-193.0,-4000.0,-888.0,4000.0,-217.0,-169.0,-2127.0
122.0,-122.0,-4000.0,-540.0,4000.0,1.0,-226.0,3275.0
373.0,-89.0,-4000.0,-379.0,4000.0,29.0,-102.0,4000.0
429.0,-89.0,-4000.0,-64.0,4000.0,-1.0,104.0,4000.0
530.0,-69.0,-4000.0,134.0,4000.0,7.0,-21.0,4000.0
668.0,-19.0,-3832.0,356.0,4000.0,38.0,-54.0,4000.0
683.0,2.0,1300.0,675.0,4000.0,35.0,45.0,4000.0
498.0,-45.0,4000.0,1104.0,4000.0,-65.0,349.0,4000.0
436.0,-5.0,2483.0,1363.0,4000.0,-167.0,734.0,4000.0
651.0,64.0,1818.0,1379.0,4000.0,-182.0,687.0,4000.0
1375.0,115.0,3251.0,1302.0,3202.0,-98.0,368.0,4000.0
1625.0,131.0,4000.0,699.0,2383.0,-30.0,213.0,1727.0
390.0,62.0,4000.0,365.0,2124.0,-7.0,4.0,531.0
-311.0,34.0,2600.0,2.0,1966.0,50.0,-290.0,-618.0
-417.0,18.0,4000.0,-322.0,706.0,93.0,-465.0,-1012.0
-134.0,58.0,4000.0,-462.0,-408.0,130.0,-620.0,-445.0
603.0,95.0,2876.0,-409.0,-1207.0,141.0,-852.0,-787.0
285.0,99.0,2286.0,-178.0,-2174.0,154.0,-1063.0,-740.0
-589.0,121.0,2486.0,248.0,-3083.0,115.0,-977.0,-671.0
-719.0,67.0,2471.0,558.0,-3539.0,94.0,-505.0,-339.0
-453.0,2.0,2421.0,195.0,-3868.0,180.0,200.0,-1078.0
-1137.0,69.0,4000.0,-120.0,-4000.0,191.0,661.0,-2179.0
-2089.0,62.0,4000.0,-328.0,-4000.0,176.0,600.0,-3397.0
-2220.0,63.0,3952.0,-233.0,-3988.0,191.0,354.0,-4000.0
-2043.0,130.0,2913.0,116.0,-3914.0,145.0,180.0,-4000.0
-1704.0,156.0,2600.0,67.0,-3883.0,149.0,274.0,-4000.0
-1277.0,140.0,2483.0,-632.0,-3628.0,135.0,470.0,-4000.0
-1280.0,86.0,2147.0,-962.0,-3186.0,115.0,220.0,-4000.0
-1430.0,70.0,1503.0,-836.0,-2735.0,87.0,-113.0,-4000.0
-1658.0,-10.0,850.0,-305.0,-2484.0,-10.0,-167.0,-4000.0
-1140.0,-97.0,1257.0,207.0,-2409.0,-52.0,-179.0,-4000.0
263.0,-63.0,979.0,-495.0,-2409.0,-133.0,-23.0,-4000.0
716.0,-16.0,1314.0,-1174.0,-2421.0,-167.0,-208.0,-4000.0
908.0,-92.0,303.0,-1435.0,-2312.0,-106.0,-546.0,-4000.0
994.0,-176.0,-1106.0,-1435.0,-2270.0,-116.0,-708.0,-4000.0
822.0,-188.0,-1797.0,-1154.0,-2121.0,-120.0,-832.0,-4000.0
955.0,-133.0,-2499.0,-1095.0,-1853.0,-12.0,-507.0,-4000.0
870.0,-114.0,-2940.0,-1151.0,-1446.0,89.0,-29.0,-4000.0
920.0,-111.0,-2344.0,-496.0,-1179.0,41.0,464.0,-4000.0
888.0,-64.0,-696.0,630.0,-990.0,17.0,642.0,-3593.0
760.0,-23.0,621.0,1021.0,-704.0,76.0,439.0,-3759.0
652.0,46.0,324.0,728.0,-621.0,39.0,242.0,-3588.0
525.0,83.0,-336.0,498.0,-483.0,-41.0,137.0,-2893.0
563.0,109.0,-357.0,687.0,-343.0,-170.0,-3.0,-2442.0
538.0,98.0,-692.0,622.0,-341.0,-216.0,249.0,-2472.0
563.0,95.0,-1517.0,222.0,-437.0,-43.0,539.0,-2283.0
633.0,112.0,-2261.0,459.0,-274.0,-54.0,168.0,-1626.0
705.0,98.0,-1101.0,710.0,23.0,-194.0,120.0,-1558.0
569.0,49.0,-255.0,476.0,5.0,-144.0,20.0,-1269.0
495.0,27.0,556.0,211.0,56.0,94.0,-44.0,-859.0
447.0,47.0,1282.0,-22.0,119.0,406.0,441.0,-274.0
196.0,5.0,923.0,106.0,206.0,194.0,223.0,1924.0
61.0,-57.0,450.0,305.0,375.0,124.0,-615.0,3783.0
-119.0,-117.0,-75.0,169.0,469.0,76.0,-862.0,3747.0
-221.0,-144.0,-338.0,-589.0,392.0,-802.0,-23.0,2872.0
-331.0,-104.0,-709.0,-1027.0,62.0,-1290.0,603.0,1012.0
-505.0,-62.0,-190.0,-679.0,-229.0,-875.0,337.0,-1018.0
-468.0,-65.0,606.0,-652.0,-523.0,-61.0,49.0,-2071.0
-482.0,-26.0,437.0,-669.0,-1137.0,857.0,-465.0,-2667.0
-589.0,-25.0,-255.0,-503.0,-1731.0,684.0,-1227.0,-3154.0
-367.0,-5.0,-153.0,-254.0,-2139.0,-825.0,-1266.0,-2930.0
-171.0,16.0,253.0,112.0,-2860.0,-1242.0,-986.0,-2617.0
-111.0,6.0,19.0,1037.0,-3639.0,-458.0,-664.0,-2519.0
51.0,60.0,345.0,1588.0,-4000.0,-297.0,77.0,-1856.0
-32.0,34.0,1509.0,1357.0,-4000.0,-394.0,420.0,-54.0
-56.0,41.0,736.0,1367.0,-4000.0,-149.0,256.0,1769.0
-91.0,52.0,-2188.0,1059.0,-4000.0,408.0,220.0,2550.0
-69.0,45.0,-3540.0,858.0,-4000.0,636.0,867.0,2835.0
3.0,34.0,-3461.0,538.0,-4000.0,681.0,1539.0,3600.0
54.0,5.0,-3070.0,-213.0,-4000.0,858.0,1223.0,4000.0
127.0,3.0,-2639.0,-458.0,-4000.0,596.0,1115.0,4000.0
214.0,37.0,-1862.0,-466.0,-4000.0,480.0,-46.0,4000.0
489.0,114.0,-1101.0,-372.0,-4000.0,415.0,-1551.0,4000.0
387.0,70.0,-2086.0,-1069.0,-4000.0,-174.0,-1468.0,4000.0
139.0,32.0,-3396.0,-1922.0,-4000.0,-352.0,-1197.0,4000.0
17.0,9.0,-4000.0,-1786.0,-4000.0,-343.0,-1071.0,4000.0
-180.0,-48.0,-3756.0,-958.0,-4000.0,-198.0,-1506.0,4000.0
-220.0,-114.0,-2757.0,-498.0,-4000.0,-28.0,-1266.0,4000.0
-379.0,-293.0,-2560.0,-1284.0,-4000.0,-190.0,619.0,4000.0
-571.0,-393.0,-1549.0,-2224.0,-4000.0,1069.0,3103.0,4000.0
-545.0,-314.0,-287.0,-2196.0,-4000.0,2359.0,3728.0,4000.0
-380.0,-202.0,801.0,-1305.0,-4000.0,2306.0,2956.0,3700.0
-58.0,-96.0,492.0,-1266.0,-4000.0,1917.0,1984.0,2154.0
82.0,-28.0,621.0,-1872.0,-4000.0,1638.0,1330.0,1468.0
95.0,-40.0,654.0,-2259.0,-3883.0,1451.0,1984.0,662.0
135.0,-101.0,152.0,-1114.0,-3066.0,276.0,838.0,-223.0
104.0,-121.0,1283.0,1428.0,-2018.0,-768.0,-565.0,-305.0
125.0,-137.0,1673.0,2916.0,-1740.0,-1330.0,-2247.0,-224.0
184.0,-138.0,1757.0,3629.0,-698.0,-2286.0,-3261.0,-472.0
310.0,-155.0,1574.0,3426.0,988.0,-2250.0,140.0,-685.0
521.0,-141.0,866.0,2868.0,2711.0,-1062.0,673.0,-1005.0
733.0,-142.0,923.0,2933.0,4000.0,180.0,-2821.0,-1070.0
499.0,-141.0,728.0,1360.0,4000.0,458.0,-3196.0,-1206.0
-110.0,-74.0,606.0,-1114.0,4000.0,557.0,-2546.0,-1208.0
-409.0,-83.0,1517.0,-1310.0,4000.0,172.0,-862.0,-1126.0
-450.0,-113.0,2616.0,752.0,4000.0,-1376.0,2761.0,-1250.0
-266.0,8.0,-912.0,2981.0,4000.0,-2167.0,2843.0,-1050.0
-70.0,176.0,-4000.0,3706.0,4000.0,-2286.0,325.0,-1077.0
-245.0,228.0,-4000.0,2325.0,4000.0,-1977.0,-575.0,-993.0
-712.0,241.0,-4000.0,838.0,4000.0,-940.0,-485.0,-736.0
-706.0,217.0,-2964.0,-523.0,4000.0,-221.0,-615.0,-818.0
28.0,258.0,-1101.0,-1146.0,4000.0,-932.0,-465.0,-659.0
701.0,227.0,533.0,-167.0,4000.0,-1053.0,134.0,-844.0
391.0,143.0,2017.0,124.0,4000.0,-435.0,1264.0,-775.0
-457.0,0.0,1574.0,-690.0,4000.0,-696.0,1915.0,-245.0
-685.0,-80.0,2483.0,-2000.0,4000.0,-238.0,1575.0,-627.0
-474.0,214.0,4000.0,-1952.0,4000.0,167.0,1512.0,-1070.0
-75.0,266.0,4000.0,-1303.0,4000.0,29.0,883.0,-706.0
275.0,-18.0,4000.0,-2275.0,4000.0,-50.0,818.0,199.0
1435.0,70.0,2616.0,-2423.0,4000.0,-297.0,853.0,1065.0
2014.0,75.0,-4000.0,-3609.0,4000.0,-40.0,759.0,2510.0
216.0,28.0,-4000.0,-4000.0,4000.0,496.0,1013.0,4000.0
-1011.0,30.0,-4000.0,-4000.0,4000.0,246.0,871.0,4000.0
-1300.0,-90.0,-1681.0,-4000.0,4000.0,-55.0,1164.0,2433.0
-844.0,94.0,-547.0,-4000.0,4000.0,490.0,1605.0,3014.0
-432.0,180.0,902.0,-4000.0,4000.0,822.0,2242.0,1567.0
-502.0,327.0,337.0,-4000.0,4000.0,693.0,2879.0,781.0
-73.0,341.0,-1211.0,-3545.0,4000.0,603.0,2684.0,199.0
-132.0,241.0,-1171.0,-2352.0,4000.0,738.0,1670.0,-4000.0
33.0,189.0,-80.0,-717.0,4000.0,1063.0,1084.0,-4000.0
416.0,111.0,123.0,909.0,4000.0,1059.0,-167.0,-4000.0
1110.0,72.0,964.0,2193.0,4000.0,860.0,-2385.0,-4000.0
1051.0,-41.0,2148.0,3491.0,-3192.0,660.0,-4000.0,-4000.0
543.0,8.0,1310.0,4000.0,-4000.0,107.0,-4000.0,-4000.0
1181.0,83.0,858.0,4000.0,-4000.0,-35.0,-4000.0,-4000.0
465.0,140.0,996.0,4000.0,-4000.0,118.0,-4000.0,-4000.0
