465.0,155.0,28.0,138.0,4000.0,-2504.0,1341.0,-529.0
342.0,164.0,-6.0,120.0,4000.0,-1330.0,1353.0,-586.0
48.0,168.0,-246.0,101.0,4000.0,-789.0,1667.0,-594.0
-123.0,190.0,-448.0,215.0,4000.0,-586.0,2309.0,-665.0
118.0,146.0,-599.0,269.0,4000.0,-988.0,2579.0,-866.0
175.0,117.0,-328.0,313.0,4000.0,-1183.0,2440.0,-846.0
204.0,103.0,-291.0,329.0,4000.0,-1447.0,1605.0,-809.0
275.0,99.0,-380.0,276.0,4000.0,-1764.0,954.0,-804.0
172.0,70.0,-393.0,248.0,4000.0,-2063.0,889.0,-805.0
125.0,67.0,-552.0,199.0,4000.0,-1850.0,116.0,-818.0
24.0,70.0,-523.0,246.0,4000.0,-2481.0,-1962.0,-748.0
-12.0,92.0,-507.0,189.0,4000.0,-3657.0,-3837.0,-730.0
-62.0,65.0,-376.0,244.0,4000.0,-2119.0,-4000.0,-605.0
-73.0,44.0,-356.0,341.0,-782.0,160.0,-4000.0,-549.0
-96.0,93.0,-465.0,381.0,-4000.0,887.0,-4000.0,-325.0
-146.0,110.0,-365.0,376.0,-4000.0,1531.0,-4000.0,-99.0
-157.0,79.0,-225.0,276.0,-4000.0,1656.0,-4000.0,-213.0
-222.0,38.0,-147.0,210.0,-4000.0,988.0,-4000.0,-34.0
-234.0,62.0,-306.0,88.0,-4000.0,592.0,-2185.0,148.0
-186.0,0.0,-292.0,-13.0,-4000.0,480.0,608.0,-166.0
-142.0,-42.0,-166.0,-100.0,-4000.0,119.0,1149.0,-370.0
-136.0,-65.0,-96.0,-200.0,-4000.0,-371.0,1033.0,-528.0
-114.0,-83.0,187.0,-208.0,-4000.0,-526.0,297.0,-606.0
-96.0,-99.0,190.0,-241.0,-4000.0,-358.0,-138.0,-525.0
-89.0,-72.0,169.0,-284.0,-4000.0,-327.0,-345.0,-523.0
-67.0,-57.0,382.0,-226.0,-4000.0,-620.0,-533.0,-492.0
-125.0,-53.0,524.0,-194.0,-4000.0,-1107.0,-308.0,-442.0
-280.0,-23.0,826.0,-166.0,-4000.0,-1383.0,-305.0,-362.0
-261.0,-31.0,785.0,-137.0,-4000.0,-1487.0,-149.0,-297.0
-36.0,21.0,101.0,-167.0,-4000.0,-1330.0,-157.0,-175.0
52.0,-54.0,-189.0,-206.0,-4000.0,-750.0,8.0,-46.0
139.0,-98.0,-186.0,-148.0,-4000.0,-11.0,78.0,23.0
169.0,-80.0,-316.0,-81.0,-4000.0,293.0,101.0,10.0
70.0,-77.0,-320.0,-109.0,-3655.0,380.0,243.0,-35.0
49.0,-36.0,-415.0,-110.0,-1918.0,571.0,331.0,44.0
30.0,-12.0,-442.0,-59.0,-360.0,771.0,376.0,184.0
20.0,62.0,-194.0,-26.0,1091.0,1018.0,416.0,228.0
-16.0,62.0,-354.0,-12.0,2425.0,1163.0,506.0,163.0
-13.0,51.0,-572.0,92.0,3679.0,1508.0,557.0,274.0
-5.0,41.0,-446.0,174.0,4000.0,1531.0,563.0,406.0
20.0,34.0,-425.0,211.0,4000.0,1572.0,470.0,239.0
25.0,25.0,-263.0,324.0,4000.0,1919.0,543.0,273.0
13.0,21.0,-99.0,335.0,4000.0,2031.0,497.0,393.0
38.0,51.0,27.0,168.0,4000.0,2109.0,441.0,327.0
-5.0,50.0,140.0,-64.0,4000.0,2382.0,497.0,286.0
-1.0,46.0,309.0,-94.0,4000.0,2385.0,529.0,-46.0
30.0,63.0,467.0,-50.0,4000.0,1981.0,622.0,-297.0
25.0,84.0,410.0,-121.0,4000.0,1344.0,637.0,-195.0
23.0,95.0,297.0,-152.0,4000.0,380.0,658.0,163.0
26.0,168.0,23.0,-233.0,4000.0,-530.0,637.0,485.0
1.0,142.0,-49.0,-285.0,4000.0,-1135.0,684.0,591.0
-29.0,54.0,77.0,-226.0,4000.0,-940.0,749.0,1004.0
-29.0,62.0,121.0,-113.0,4000.0,-1688.0,838.0,1130.0
-32.0,47.0,172.0,76.0,4000.0,-2998.0,871.0,695.0
-17.0,17.0,237.0,92.0,4000.0,-2713.0,791.0,225.0
-10.0,-18.0,238.0,182.0,4000.0,-2144.0,702.0,-150.0
-8.0,-27.0,184.0,565.0,4000.0,-642.0,571.0,-218.0
7.0,-23.0,125.0,524.0,4000.0,214.0,506.0,-146.0
2.0,-48.0,18.0,-67.0,4000.0,112.0,498.0,-248.0
8.0,-46.0,31.0,-450.0,3464.0,-428.0,400.0,-333.0
-18.0,-45.0,67.0,-659.0,2504.0,-1526.0,261.0,80.0
-36.0,-36.0,24.0,-623.0,1120.0,-1387.0,90.0,334.0
-37.0,-35.0,9.0,-462.0,-449.0,-657.0,-134.0,-136.0
-53.0,-47.0,-6.0,-409.0,-2986.0,283.0,-148.0,-220.0
-32.0,-38.0,12.0,-246.0,-4000.0,496.0,-27.0,373.0
-19.0,-72.0,31.0,-67.0,-4000.0,74.0,98.0,741.0
-9.0,-83.0,73.0,204.0,-4000.0,-257.0,146.0,379.0
10.0,-79.0,103.0,329.0,-4000.0,-849.0,-20.0,-186.0
30.0,-104.0,134.0,402.0,-4000.0,-1070.0,-175.0,-131.0
80.0,-127.0,160.0,388.0,-4000.0,-1200.0,-169.0,304.0
70.0,-136.0,146.0,377.0,-4000.0,-1452.0,-141.0,226.0
15.0,-106.0,115.0,206.0,-4000.0,-1005.0,-156.0,-163.0
5.0,-112.0,14.0,-182.0,-4000.0,-177.0,-241.0,-232.0
-11.0,-86.0,-147.0,-219.0,-4000.0,419.0,-246.0,-26.0
-32.0,11.0,-224.0,-290.0,-4000.0,541.0,-92.0,261.0
-18.0,152.0,-175.0,-234.0,-4000.0,343.0,11.0,-85.0
-44.0,305.0,-192.0,-2.0,-4000.0,628.0,76.0,-235.0
-58.0,263.0,-188.0,102.0,-4000.0,815.0,62.0,247.0
-56.0,183.0,-194.0,158.0,-4000.0,542.0,-25.0,499.0
-61.0,124.0,-153.0,260.0,-4000.0,145.0,60.0,853.0
-73.0,98.0,3.0,187.0,-4000.0,-104.0,233.0,615.0
-72.0,34.0,-21.0,-96.0,-4000.0,-88.0,433.0,117.0
-92.0,-12.0,45.0,-237.0,-4000.0,-83.0,547.0,125.0
-47.0,168.0,-54.0,-371.0,-4000.0,57.0,441.0,21.0
20.0,-25.0,-123.0,-386.0,-2715.0,-59.0,282.0,-46.0
15.0,-163.0,-16.0,-393.0,180.0,-342.0,262.0,-730.0
13.0,-75.0,-49.0,-486.0,3902.0,-423.0,352.0,-136.0
-7.0,-127.0,-36.0,-397.0,4000.0,-260.0,309.0,981.0
4.0,-110.0,-51.0,-226.0,4000.0,-166.0,111.0,798.0
-19.0,-218.0,-53.0,-61.0,4000.0,-226.0,-53.0,635.0
-26.0,-232.0,-52.0,172.0,4000.0,-320.0,33.0,-41.0
21.0,-333.0,-11.0,187.0,4000.0,-489.0,138.0,-194.0
71.0,-210.0,12.0,13.0,4000.0,-751.0,130.0,-293.0
67.0,5.0,43.0,87.0,4000.0,-1118.0,213.0,-562.0
29.0,16.0,54.0,87.0,4000.0,-1424.0,209.0,-431.0
20.0,-86.0,60.0,158.0,4000.0,-1989.0,30.0,-265.0
4.0,-336.0,85.0,170.0,4000.0,-2484.0,-134.0,192.0
12.0,-288.0,108.0,134.0,4000.0,-2608.0,-154.0,139.0
-3.0,-127.0,166.0,179.0,4000.0,-2484.0,29.0,-297.0
30.0,2.0,179.0,127.0,4000.0,-2203.0,274.0,-449.0
52.0,60.0,179.0,167.0,4000.0,-1896.0,539.0,-366.0
48.0,203.0,158.0,129.0,4000.0,-1599.0,730.0,-305.0
48.0,443.0,142.0,109.0,4000.0,-1316.0,433.0,-687.0
47.0,338.0,142.0,88.0,4000.0,-1103.0,-271.0,-1709.0
72.0,114.0,150.0,92.0,4000.0,-932.0,-587.0,-3007.0
62.0,56.0,140.0,90.0,4000.0,-696.0,-855.0,-4000.0
64.0,-34.0,125.0,68.0,4000.0,-493.0,-1332.0,-3610.0
86.0,7.0,142.0,44.0,4000.0,-362.0,-1832.0,-2153.0
131.0,193.0,146.0,40.0,4000.0,-293.0,-3053.0,-563.0
151.0,550.0,112.0,42.0,4000.0,-320.0,-3904.0,1334.0
147.0,1136.0,83.0,-7.0,4000.0,-312.0,-2385.0,1960.0
104.0,1258.0,53.0,2.0,4000.0,-255.0,1149.0,2705.0
33.0,607.0,15.0,27.0,4000.0,-79.0,3708.0,3120.0
-47.0,229.0,5.0,56.0,4000.0,143.0,3983.0,3458.0
-183.0,-179.0,-24.0,49.0,4000.0,268.0,3282.0,4000.0
-278.0,-722.0,-31.0,50.0,4000.0,384.0,2255.0,1977.0
-274.0,-804.0,-59.0,40.0,4000.0,455.0,1280.0,634.0
-274.0,-1182.0,-75.0,-17.0,4000.0,468.0,333.0,1403.0
-302.0,-1212.0,-84.0,-31.0,4000.0,445.0,-465.0,2835.0
-183.0,-505.0,-140.0,-30.0,2426.0,498.0,-1006.0,2856.0
-50.0,521.0,-161.0,-52.0,1026.0,613.0,-1716.0,2160.0
-9.0,920.0,-129.0,-109.0,-109.0,693.0,-2107.0,3651.0
-7.0,780.0,-109.0,-195.0,-2989.0,752.0,-2404.0,4000.0
-24.0,447.0,-159.0,-213.0,-4000.0,766.0,-2793.0,4000.0
7.0,-165.0,-133.0,-114.0,-4000.0,902.0,-2594.0,4000.0
17.0,-483.0,-77.0,-92.0,-4000.0,947.0,-2146.0,4000.0
12.0,-894.0,-147.0,-86.0,-4000.0,986.0,-2056.0,4000.0
-48.0,-1050.0,-206.0,-57.0,-4000.0,1063.0,-2056.0,1334.0
-135.0,-722.0,-225.0,-71.0,-4000.0,1157.0,-1625.0,-2657.0
-92.0,-288.0,-211.0,-61.0,-4000.0,1287.0,-907.0,-4000.0
48.0,-77.0,-123.0,-23.0,-4000.0,1340.0,-477.0,-4000.0
74.0,108.0,-107.0,-2.0,-4000.0,1451.0,-332.0,-4000.0
56.0,176.0,-159.0,-52.0,-4000.0,1466.0,-353.0,-2415.0
25.0,-42.0,-209.0,-102.0,-4000.0,1466.0,-306.0,2948.0
-49.0,-182.0,-275.0,-137.0,-4000.0,1590.0,-119.0,4000.0
-36.0,-169.0,-190.0,-109.0,-4000.0,1691.0,179.0,4000.0
-88.0,-193.0,39.0,-74.0,-4000.0,1769.0,433.0,4000.0
-74.0,-280.0,141.0,-62.0,-4000.0,1775.0,364.0,3275.0
42.0,-99.0,193.0,-6.0,-4000.0,1710.0,563.0,-2995.0
65.0,41.0,190.0,-6.0,-4000.0,1604.0,1007.0,-4000.0
85.0,200.0,110.0,9.0,-4000.0,1466.0,1800.0,-4000.0
150.0,395.0,-36.0,39.0,-4000.0,1401.0,2890.0,-4000.0
163.0,686.0,-270.0,39.0,-4000.0,1466.0,3748.0,-4000.0
118.0,1006.0,-277.0,80.0,-4000.0,1352.0,4000.0,-4000.0
62.0,868.0,-164.0,134.0,-4000.0,1163.0,4000.0,-4000.0
25.0,598.0,-169.0,172.0,-4000.0,961.0,4000.0,-4000.0
14.0,788.0,-336.0,195.0,-4000.0,750.0,4000.0,-4000.0
-6.0,1071.0,-596.0,181.0,-4000.0,701.0,3885.0,-4000.0
8.0,607.0,-450.0,142.0,-4000.0,563.0,3708.0,-4000.0
-34.0,400.0,311.0,181.0,-4000.0,296.0,3477.0,-4000.0
-180.0,306.0,1003.0,174.0,-4000.0,-19.0,2712.0,-4000.0
-257.0,-104.0,1062.0,81.0,-4000.0,-344.0,1341.0,-4000.0
-244.0,-606.0,582.0,50.0,-4000.0,-555.0,-98.0,-4000.0
-203.0,-1116.0,-3.0,-50.0,-4000.0,-773.0,-1184.0,-2930.0
-51.0,-1257.0,-364.0,-164.0,-4000.0,-901.0,-2139.0,-1891.0
-8.0,-1310.0,-585.0,-129.0,-4000.0,-1070.0,-2842.0,-1250.0
-107.0,-1212.0,-578.0,-140.0,-4000.0,-1270.0,-2976.0,202.0
-53.0,-1090.0,-371.0,-128.0,-4000.0,-1311.0,-3000.0,2094.0
-19.0,-700.0,-129.0,-80.0,-4000.0,-1257.0,-2869.0,4000.0
-8.0,-343.0,-40.0,-136.0,-4000.0,-1253.0,-2121.0,4000.0
17.0,-163.0,-85.0,-178.0,-4000.0,-1290.0,-1312.0,4000.0
43.0,170.0,-75.0,-85.0,-2572.0,-1447.0,-1271.0,4000.0
25.0,582.0,211.0,1.0,-471.0,-1682.0,-1700.0,4000.0
1.0,598.0,178.0,1.0,1604.0,-1847.0,-2064.0,4000.0
71.0,368.0,69.0,16.0,3729.0,-2112.0,-2288.0,4000.0
137.0,194.0,299.0,0.0,4000.0,-2569.0,-2044.0,4000.0
163.0,197.0,89.0,36.0,4000.0,-3387.0,-1600.0,4000.0
187.0,321.0,-4.0,77.0,4000.0,-4000.0,-1781.0,4000.0
163.0,144.0,-244.0,30.0,4000.0,-4000.0,-2610.0,4000.0
108.0,76.0,-358.0,12.0,4000.0,-4000.0,-2626.0,4000.0
37.0,113.0,-161.0,-7.0,4000.0,-3051.0,-1884.0,4000.0
-35.0,134.0,-42.0,-19.0,4000.0,4000.0,-697.0,4000.0
-110.0,-144.0,26.0,-33.0,4000.0,4000.0,246.0,4000.0
-193.0,-346.0,-112.0,-45.0,4000.0,4000.0,75.0,2934.0
-149.0,-1.0,-22.0,-48.0,4000.0,4000.0,-439.0,-4000.0
-59.0,329.0,74.0,-24.0,4000.0,4000.0,-1006.0,-4000.0
-91.0,298.0,-6.0,-48.0,4000.0,4000.0,-1258.0,-4000.0
-93.0,54.0,13.0,-82.0,4000.0,4000.0,-527.0,-4000.0
-10.0,48.0,146.0,-78.0,4000.0,4000.0,1526.0,-4000.0
59.0,248.0,190.0,-84.0,4000.0,4000.0,3463.0,-948.0
109.0,328.0,248.0,-40.0,4000.0,4000.0,4000.0,-311.0
89.0,282.0,296.0,-36.0,4000.0,4000.0,4000.0,491.0
49.0,374.0,333.0,-37.0,4000.0,3788.0,3838.0,9.0
7.0,717.0,354.0,-9.0,4000.0,3330.0,4000.0,10.0
44.0,696.0,349.0,19.0,4000.0,2363.0,4000.0,-588.0
161.0,345.0,382.0,54.0,3215.0,2124.0,4000.0,-1123.0
182.0,282.0,356.0,85.0,3281.0,1343.0,4000.0,-931.0
203.0,163.0,336.0,47.0,3657.0,738.0,4000.0,-543.0
169.0,347.0,193.0,-68.0,3679.0,20.0,4000.0,876.0
132.0,475.0,110.0,-96.0,3428.0,-548.0,4000.0,1769.0
26.0,215.0,45.0,-86.0,2425.0,-767.0,4000.0,2624.0
-78.0,33.0,-44.0,-103.0,1930.0,-526.0,4000.0,2301.0
-120.0,-293.0,-161.0,-173.0,1474.0,-375.0,4000.0,1586.0
-226.0,-606.0,-376.0,-278.0,888.0,-647.0,2492.0,2283.0
-201.0,-635.0,-465.0,-214.0,-99.0,-743.0,1270.0,4000.0
-50.0,-470.0,-288.0,95.0,-918.0,-932.0,-507.0,4000.0
-41.0,-568.0,-147.0,433.0,-152.0,-1330.0,-2464.0,4000.0
-148.0,-800.0,-129.0,164.0,20.0,-1617.0,-4000.0,4000.0
-262.0,-895.0,-68.0,-373.0,-928.0,-1632.0,-4000.0,4000.0
-221.0,-677.0,-87.0,-383.0,-501.0,-1916.0,-4000.0,2183.0
-53.0,-432.0,10.0,-498.0,89.0,-2248.0,-4000.0,-2425.0
-53.0,-419.0,24.0,-479.0,-1491.0,-2469.0,-4000.0,-4000.0
-138.0,-383.0,-18.0,-377.0,-3128.0,-2503.0,-4000.0,-4000.0
-79.0,-118.0,23.0,-305.0,-2726.0,-2569.0,-4000.0,-4000.0
-39.0,98.0,89.0,93.0,-77.0,-2738.0,-4000.0,-4000.0
-78.0,26.0,154.0,272.0,2695.0,-2673.0,-3520.0,-1644.0
-25.0,156.0,148.0,467.0,2231.0,-2493.0,-2793.0,-325.0
14.0,273.0,190.0,603.0,1666.0,-2528.0,-3131.0,1286.0
116.0,469.0,187.0,1033.0,2581.0,-2481.0,-3928.0,935.0
125.0,731.0,134.0,1422.0,2428.0,-2463.0,-4000.0,1252.0
41.0,652.0,-18.0,891.0,1509.0,-2673.0,-4000.0,1221.0
39.0,587.0,-212.0,-449.0,155.0,-2867.0,-4000.0,1053.0
23.0,378.0,-310.0,-2047.0,68.0,-3193.0,-4000.0,1045.0
-35.0,-220.0,-225.0,-2794.0,459.0,-3665.0,-4000.0,258.0
-132.0,-575.0,-139.0,-2615.0,414.0,-3639.0,-4000.0,760.0
-106.0,-640.0,-135.0,-1557.0,987.0,-2712.0,-4000.0,3209.0
7.0,-598.0,-28.0,-161.0,1378.0,-2268.0,-4000.0,4000.0
72.0,-596.0,85.0,915.0,1657.0,-2558.0,-4000.0,4000.0
64.0,-729.0,76.0,1566.0,1518.0,-2803.0,-4000.0,4000.0
89.0,-575.0,-51.0,1314.0,1287.0,-2397.0,-4000.0,3469.0
121.0,-249.0,-75.0,1358.0,961.0,-2315.0,-4000.0,1207.0
122.0,60.0,93.0,1274.0,627.0,-2673.0,-4000.0,-577.0
139.0,446.0,191.0,1045.0,267.0,-1850.0,-4000.0,-908.0
107.0,652.0,125.0,915.0,-103.0,-1452.0,-4000.0,-753.0
109.0,489.0,5.0,622.0,126.0,-912.0,-4000.0,-553.0
82.0,363.0,-177.0,565.0,393.0,-286.0,-4000.0,359.0
4.0,374.0,-149.0,524.0,859.0,-519.0,-4000.0,137.0
-27.0,359.0,-107.0,577.0,1379.0,-750.0,-4000.0,-1174.0
-5.0,248.0,-170.0,720.0,1824.0,-1357.0,-2093.0,-2763.0
32.0,182.0,-187.0,523.0,2060.0,-1461.0,-713.0,-2556.0
-27.0,146.0,-78.0,-206.0,2113.0,-1237.0,-1264.0,-1860.0
-145.0,134.0,92.0,-633.0,2243.0,-680.0,3151.0,-2153.0
-218.0,176.0,-17.0,-810.0,2383.0,-289.0,4000.0,-1997.0
-361.0,217.0,-98.0,-789.0,2646.0,-131.0,4000.0,-1377.0
-547.0,199.0,-153.0,-625.0,2516.0,147.0,4000.0,-1339.0
-523.0,110.0,-148.0,-445.0,2425.0,309.0,4000.0,-1271.0
-292.0,95.0,-20.0,-198.0,2360.0,366.0,4000.0,-492.0
-79.0,31.0,0.0,-185.0,2190.0,406.0,4000.0,-724.0
82.0,-26.0,65.0,91.0,2124.0,268.0,4000.0,-2147.0
208.0,-38.0,107.0,245.0,1930.0,-332.0,4000.0,-3397.0
277.0,-7.0,80.0,164.0,1800.0,-116.0,4000.0,-3844.0
342.0,13.0,243.0,368.0,1592.0,100.0,4000.0,-4000.0
320.0,41.0,272.0,222.0,1525.0,445.0,4000.0,-4000.0
325.0,69.0,207.0,81.0,1657.0,1409.0,4000.0,-4000.0
330.0,44.0,183.0,155.0,1579.0,1279.0,4000.0,-3244.0
376.0,24.0,92.0,31.0,1026.0,1083.0,4000.0,-1440.0
393.0,4.0,30.0,-9.0,725.0,1518.0,4000.0,-889.0
301.0,-3.0,-252.0,-414.0,526.0,1322.0,4000.0,-664.0
228.0,9.0,-393.0,-466.0,224.0,1734.0,4000.0,635.0
202.0,40.0,-143.0,48.0,106.0,2812.0,4000.0,745.0
169.0,59.0,95.0,203.0,-86.0,2694.0,4000.0,-1013.0
118.0,73.0,238.0,-90.0,-236.0,2319.0,4000.0,-2230.0
72.0,68.0,228.0,-595.0,-442.0,2512.0,4000.0,-1050.0
4.0,69.0,111.0,-1044.0,-260.0,2450.0,4000.0,-46.0
-70.0,34.0,201.0,-1245.0,215.0,2694.0,-688.0,-1558.0
-148.0,-50.0,187.0,-1081.0,314.0,2549.0,-4000.0,-1143.0
-172.0,-135.0,39.0,-737.0,144.0,1071.0,-4000.0,-1108.0
-186.0,-179.0,16.0,-614.0,122.0,-92.0,-4000.0,-537.0
-172.0,-120.0,-212.0,-560.0,-602.0,-143.0,-4000.0,1403.0
-128.0,-144.0,-283.0,-174.0,-1768.0,-706.0,-4000.0,3002.0
-170.0,-120.0,-41.0,205.0,-2289.0,-630.0,-4000.0,4000.0
-165.0,-46.0,-66.0,504.0,-3172.0,1482.0,-4000.0,4000.0
-179.0,-55.0,-408.0,622.0,-4000.0,2566.0,-4000.0,4000.0
-195.0,-38.0,-470.0,1284.0,-4000.0,3018.0,-4000.0,4000.0
-181.0,-27.0,-291.0,3686.0,-4000.0,2442.0,-4000.0,3340.0
-150.0,-31.0,-153.0,4000.0,-4000.0,1098.0,-4000.0,1763.0
-76.0,-5.0,-2.0,4000.0,-4000.0,1313.0,-4000.0,-553.0
49.0,38.0,-78.0,2151.0,-4000.0,843.0,-4000.0,-2024.0
285.0,3.0,-147.0,-46.0,-4000.0,1157.0,-4000.0,-2800.0
648.0,-8.0,-84.0,-2837.0,-4000.0,1669.0,-4000.0,-4000.0
543.0,-3.0,50.0,-3960.0,-4000.0,-1647.0,-4000.0,-4000.0
228.0,11.0,157.0,-3417.0,-4000.0,-3959.0,-4000.0,-4000.0
14.0,24.0,141.0,-3575.0,-3753.0,-2384.0,-4000.0,-4000.0
-317.0,14.0,124.0,-3791.0,-2924.0,-1794.0,-4000.0,-3268.0
-450.0,36.0,2.0,-3548.0,-2400.0,-145.0,-3236.0,-1677.0
-548.0,22.0,-106.0,-2989.0,-1833.0,2060.0,-1358.0,-297.0
-453.0,2.0,-64.0,-2752.0,-1882.0,1533.0,148.0,1573.0
-117.0,-23.0,31.0,-1435.0,-1637.0,-327.0,1801.0,2237.0
204.0,-12.0,21.0,-614.0,-1200.0,-1180.0,3465.0,1932.0
232.0,-11.0,54.0,329.0,-803.0,542.0,4000.0,4000.0
-156.0,-23.0,175.0,1601.0,-168.0,441.0,4000.0,4000.0
-741.0,6.0,111.0,793.0,338.0,-737.0,4000.0,4000.0
-691.0,-27.0,-99.0,-29.0,831.0,-613.0,4000.0,4000.0
-92.0,-31.0,-383.0,-513.0,1269.0,-246.0,4000.0,4000.0
397.0,-10.0,-338.0,-401.0,1905.0,1639.0,4000.0,4000.0
683.0,11.0,-229.0,125.0,2748.0,1417.0,4000.0,4000.0
398.0,41.0,-190.0,64.0,2889.0,548.0,4000.0,2572.0
109.0,86.0,-78.0,1563.0,2683.0,866.0,4000.0,-1061.0
-274.0,85.0,24.0,2851.0,2422.0,29.0,4000.0,-3581.0
-493.0,23.0,304.0,3567.0,2320.0,433.0,4000.0,-4000.0
-541.0,1.0,476.0,3489.0,2421.0,1157.0,4000.0,-4000.0
-497.0,-23.0,592.0,1371.0,2178.0,888.0,4000.0,-4000.0
-396.0,-72.0,520.0,102.0,2178.0,441.0,4000.0,-3926.0
-404.0,-77.0,408.0,-475.0,2060.0,-680.0,4000.0,-1788.0
-227.0,-44.0,272.0,-849.0,1509.0,-1995.0,4000.0,-109.0
-296.0,-40.0,42.0,-1109.0,771.0,-1330.0,4000.0,-529.0
-368.0,-65.0,-25.0,-962.0,264.0,-849.0,4000.0,-1279.0
-352.0,-69.0,-47.0,-549.0,432.0,-51.0,4000.0,-3824.0
-278.0,-43.0,-14.0,-179.0,896.0,1314.0,4000.0,-4000.0
-244.0,20.0,-5.0,988.0,953.0,498.0,4000.0,-4000.0
-197.0,33.0,123.0,2775.0,224.0,-504.0,4000.0,-4000.0
-97.0,6.0,-32.0,4000.0,-947.0,145.0,4000.0,-4000.0
8.0,-14.0,-194.0,4000.0,-2140.0,1969.0,3669.0,-4000.0
222.0,-37.0,-283.0,4000.0,-3327.0,888.0,2942.0,-1904.0
303.0,-57.0,-347.0,1981.0,-3508.0,441.0,2582.0,890.0
314.0,-86.0,-137.0,-2224.0,-2121.0,758.0,3021.0,2479.0
308.0,-63.0,-311.0,-4000.0,-2079.0,628.0,3477.0,4000.0
256.0,-45.0,-548.0,-4000.0,-4000.0,896.0,3477.0,4000.0
209.0,-51.0,-580.0,-4000.0,-4000.0,273.0,3364.0,3328.0
322.0,-31.0,-277.0,-4000.0,-4000.0,354.0,3542.0,2934.0
487.0,-26.0,-32.0,-4000.0,-4000.0,-173.0,3773.0,3210.0
346.0,-7.0,123.0,-3771.0,-4000.0,-411.0,3983.0,3340.0
192.0,24.0,252.0,-2218.0,-4000.0,-945.0,4000.0,3847.0
194.0,37.0,258.0,-1027.0,-3604.0,-1226.0,4000.0,3999.0
100.0,25.0,361.0,370.0,-4000.0,-1070.0,4000.0,3469.0
64.0,9.0,390.0,1031.0,-4000.0,-1106.0,4000.0,2937.0
-138.0,-6.0,450.0,1144.0,-4000.0,-1140.0,3754.0,2689.0
-1260.0,23.0,318.0,1370.0,-3640.0,-1431.0,3559.0,2078.0
-2593.0,38.0,277.0,1509.0,-1768.0,-1205.0,3270.0,1859.0
-1544.0,6.0,219.0,1601.0,30.0,-1245.0,2814.0,1769.0
149.0,9.0,37.0,1125.0,1482.0,-802.0,2226.0,1859.0
811.0,8.0,-121.0,1024.0,1995.0,-875.0,1575.0,1716.0
2002.0,29.0,-248.0,1119.0,1312.0,-881.0,1228.0,1156.0
2092.0,43.0,-357.0,1086.0,2683.0,-247.0,1007.0,788.0
1557.0,68.0,-409.0,864.0,4000.0,286.0,538.0,456.0
760.0,60.0,-450.0,719.0,4000.0,415.0,220.0,395.0
200.0,-8.0,-424.0,740.0,4000.0,-307.0,234.0,434.0
733.0,9.0,-242.0,915.0,4000.0,-1330.0,225.0,450.0
762.0,40.0,-389.0,644.0,4000.0,-2403.0,283.0,485.0
855.0,14.0,-258.0,518.0,4000.0,-2884.0,195.0,658.0
768.0,-26.0,-192.0,891.0,4000.0,-3051.0,-290.0,804.0
406.0,-44.0,-212.0,900.0,4000.0,-3104.0,-703.0,890.0
90.0,-48.0,-1.0,891.0,3853.0,-3535.0,-876.0,882.0
-407.0,-53.0,-40.0,864.0,2955.0,-4000.0,-1271.0,615.0
-491.0,-39.0,89.0,956.0,1901.0,-4000.0,-2146.0,384.0
-555.0,19.0,130.0,864.0,1279.0,-3571.0,-2920.0,-280.0
-575.0,34.0,105.0,422.0,603.0,-2660.0,-2663.0,-1279.0
-482.0,26.0,55.0,49.0,-732.0,-1582.0,-1266.0,-918.0
-404.0,48.0,18.0,17.0,-2159.0,-253.0,-224.0,409.0
-327.0,52.0,21.0,276.0,-3185.0,1045.0,-672.0,1207.0
-225.0,58.0,-74.0,1151.0,-4000.0,2295.0,-743.0,1859.0
-209.0,43.0,-19.0,1352.0,-4000.0,3214.0,244.0,2572.0
-262.0,25.0,66.0,301.0,-4000.0,3655.0,1072.0,2624.0
-323.0,1.0,77.0,-41.0,-4000.0,3426.0,58.0,1859.0
-409.0,12.0,146.0,-727.0,-4000.0,2759.0,-2549.0,1437.0
-352.0,19.0,225.0,-1240.0,-4000.0,1840.0,-4000.0,1650.0
-258.0,1.0,175.0,-1086.0,-1378.0,967.0,-4000.0,1924.0
-184.0,-1.0,197.0,-1329.0,4000.0,355.0,-4000.0,1912.0
-149.0,8.0,201.0,-1329.0,4000.0,224.0,-4000.0,1834.0
-86.0,50.0,169.0,-1637.0,4000.0,433.0,-4000.0,1818.0
27.0,75.0,193.0,-1235.0,4000.0,758.0,-4000.0,1216.0
107.0,49.0,170.0,-332.0,4000.0,1398.0,-2626.0,686.0
98.0,39.0,172.0,-74.0,4000.0,1898.0,-1435.0,590.0
48.0,41.0,175.0,-6.0,4000.0,2567.0,-573.0,314.0
30.0,23.0,179.0,158.0,4000.0,3101.0,1149.0,-104.0
-60.0,39.0,130.0,164.0,4000.0,3345.0,1899.0,-622.0
-92.0,90.0,80.0,116.0,4000.0,2953.0,2777.0,-602.0
-48.0,99.0,157.0,197.0,4000.0,1963.0,2684.0,-240.0
-42.0,83.0,207.0,144.0,4000.0,1313.0,2255.0,-606.0
17.0,69.0,163.0,152.0,4000.0,681.0,1628.0,-1169.0
212.0,37.0,195.0,155.0,4000.0,404.0,311.0,-1330.0
245.0,16.0,150.0,97.0,4000.0,195.0,-615.0,-1326.0
86.0,77.0,64.0,42.0,4000.0,90.0,-839.0,-744.0
-5.0,124.0,80.0,68.0,1644.0,265.0,-2.0,-628.0
-162.0,73.0,96.0,54.0,-120.0,608.0,-811.0,-1339.0
-229.0,28.0,149.0,3.0,-1077.0,858.0,-1665.0,-2309.0
-260.0,22.0,130.0,-36.0,-2122.0,412.0,194.0,-3268.0
-286.0,35.0,77.0,-113.0,-2977.0,271.0,1705.0,-3634.0
-221.0,30.0,-8.0,-133.0,-3381.0,-91.0,302.0,-4000.0
-206.0,-10.0,-111.0,-153.0,-3278.0,-1097.0,-1382.0,-4000.0
-205.0,-28.0,-288.0,-145.0,-2935.0,-1357.0,-2418.0,-4000.0
-193.0,-74.0,-385.0,-124.0,-2986.0,-591.0,-3106.0,-3969.0
-82.0,-125.0,-206.0,-25.0,-3575.0,-373.0,-2208.0,-3154.0
10.0,-202.0,-87.0,47.0,-3665.0,433.0,-2008.0,-2735.0
44.0,-212.0,12.0,102.0,-3408.0,1482.0,-2208.0,-2153.0
50.0,-183.0,133.0,134.0,-3817.0,660.0,-1944.0,-1404.0
89.0,-244.0,215.0,29.0,-4000.0,636.0,-550.0,-605.0
92.0,-214.0,147.0,130.0,-4000.0,548.0,1540.0,-704.0
-23.0,-210.0,85.0,168.0,-4000.0,150.0,802.0,-1148.0
-1.0,-165.0,-12.0,-200.0,-4000.0,376.0,-811.0,-627.0
42.0,-32.0,-413.0,-527.0,-4000.0,602.0,-652.0,359.0
25.0,38.0,-547.0,-486.0,-4000.0,831.0,1534.0,947.0
21.0,75.0,-347.0,-427.0,-4000.0,480.0,2582.0,1272.0
-25.0,73.0,-246.0,-604.0,-4000.0,326.0,1379.0,1216.0
-29.0,99.0,-271.0,-462.0,-4000.0,180.0,1326.0,727.0
15.0,95.0,-252.0,-283.0,-4000.0,298.0,1457.0,-166.0
34.0,52.0,-193.0,-318.0,-4000.0,-187.0,1223.0,-529.0
30.0,94.0,-110.0,-157.0,-4000.0,-548.0,876.0,40.0
19.0,106.0,-18.0,-47.0,-4000.0,-71.0,-64.0,484.0
35.0,108.0,65.0,31.0,-4000.0,-186.0,-477.0,1136.0
37.0,148.0,47.0,62.0,-4000.0,-810.0,-245.0,1525.0
39.0,44.0,39.0,105.0,-4000.0,-485.0,-186.0,1077.0
41.0,20.0,-1.0,138.0,-4000.0,463.0,-1128.0,863.0
60.0,1.0,-440.0,123.0,-4000.0,-511.0,-2028.0,890.0
80.0,-55.0,-1678.0,142.0,-4000.0,-1376.0,-2172.0,751.0
74.0,-52.0,-3472.0,142.0,-1766.0,-448.0,-2408.0,870.0
59.0,-111.0,-4000.0,192.0,1018.0,-7.0,-2317.0,802.0
25.0,4.0,-2254.0,181.0,2189.0,-597.0,-2093.0,695.0
18.0,121.0,1303.0,183.0,1865.0,-1070.0,-1533.0,491.0
2.0,52.0,3432.0,243.0,908.0,-1265.0,132.0,159.0
43.0,16.0,4000.0,152.0,-276.0,-810.0,207.0,-30.0
60.0,0.0,4000.0,12.0,-1737.0,-255.0,-373.0,-240.0
49.0,-83.0,3369.0,-37.0,-2924.0,296.0,-224.0,-209.0
62.0,-31.0,2347.0,-77.0,-3327.0,758.0,-555.0,-175.0
12.0,47.0,1262.0,-136.0,-3079.0,490.0,-241.0,-56.0
-8.0,85.0,484.0,-181.0,-2340.0,49.0,82.0,117.0
-63.0,124.0,-340.0,-84.0,-1885.0,-18.0,197.0,227.0
-97.0,106.0,-440.0,12.0,-1098.0,45.0,-332.0,322.0
-88.0,33.0,-502.0,55.0,575.0,-97.0,-355.0,410.0
-102.0,-101.0,-637.0,28.0,2842.0,-59.0,282.0,485.0
-181.0,-122.0,-585.0,-29.0,4000.0,-146.0,299.0,459.0
-244.0,-94.0,-393.0,183.0,4000.0,33.0,542.0,507.0
-219.0,-79.0,-519.0,264.0,4000.0,154.0,753.0,536.0
-183.0,-32.0,-716.0,193.0,-3456.0,-21.0,707.0,580.0
-132.0,-51.0,-613.0,110.0,-4000.0,-182.0,194.0,654.0
-94.0,-52.0,-469.0,-129.0,-4000.0,-326.0,368.0,596.0
-58.0,-40.0,-473.0,-123.0,-4000.0,-304.0,742.0,662.0
31.0,-64.0,-572.0,120.0,-4000.0,-455.0,883.0,980.0
116.0,-70.0,-489.0,110.0,-99.0,-480.0,542.0,1221.0
212.0,-63.0,-450.0,16.0,4000.0,-489.0,-313.0,1248.0
328.0,-28.0,-354.0,-93.0,4000.0,-458.0,877.0,1077.0
408.0,56.0,-257.0,-127.0,4000.0,-331.0,954.0,686.0
416.0,71.0,-259.0,-122.0,4000.0,-84.0,-1168.0,267.0
296.0,33.0,-224.0,-116.0,4000.0,-3.0,-1189.0,-15.0
215.0,38.0,-153.0,-72.0,4000.0,-308.0,-550.0,-317.0
163.0,6.0,-177.0,-152.0,4000.0,-167.0,-5.0,-643.0
82.0,5.0,-357.0,-107.0,4000.0,30.0,1137.0,-948.0
73.0,-13.0,-906.0,-107.0,4000.0,-336.0,866.0,-1213.0
39.0,-27.0,-1927.0,-110.0,3747.0,-48.0,1052.0,-1504.0
39.0,-10.0,-3471.0,-39.0,3102.0,303.0,2514.0,-1894.0
34.0,-14.0,-3278.0,-32.0,3215.0,-665.0,3038.0,-2296.0
71.0,26.0,-532.0,-1.0,3593.0,-917.0,2814.0,-2893.0
225.0,45.0,1119.0,28.0,4000.0,-642.0,2552.0,-3397.0
241.0,44.0,2130.0,93.0,4000.0,-448.0,1801.0,-3773.0
107.0,51.0,1888.0,152.0,4000.0,510.0,1274.0,-4000.0
5.0,49.0,852.0,282.0,4000.0,498.0,669.0,-4000.0
-140.0,56.0,1133.0,337.0,4000.0,-188.0,123.0,-3671.0
-193.0,76.0,1237.0,272.0,2578.0,-84.0,341.0,-2617.0
-218.0,49.0,1562.0,250.0,1704.0,-53.0,734.0,-850.0
-271.0,50.0,1704.0,107.0,1656.0,-141.0,1840.0,1468.0
-274.0,54.0,1368.0,-311.0,497.0,-54.0,1483.0,3910.0
-302.0,36.0,931.0,-475.0,-983.0,-179.0,-652.0,4000.0
-309.0,59.0,764.0,-208.0,-2010.0,-186.0,-648.0,4000.0
-308.0,79.0,663.0,-201.0,-2676.0,-184.0,-255.0,4000.0
-310.0,90.0,252.0,-352.0,-3132.0,-149.0,-1718.0,4000.0
-268.0,92.0,-122.0,-214.0,-2922.0,-167.0,-4000.0,4000.0
-240.0,91.0,-318.0,-32.0,-2870.0,-200.0,-4000.0,4000.0
-188.0,81.0,-243.0,-6.0,-2843.0,-111.0,-4000.0,4000.0
-124.0,58.0,-180.0,8.0,-1671.0,81.0,-982.0,4000.0
-123.0,68.0,-216.0,54.0,-840.0,504.0,-676.0,4000.0
-98.0,65.0,-304.0,66.0,-718.0,391.0,-836.0,4000.0
-16.0,74.0,-338.0,223.0,-659.0,160.0,-1527.0,4000.0
1.0,70.0,-401.0,276.0,-734.0,158.0,-615.0,4000.0
1.0,54.0,-487.0,287.0,-837.0,-47.0,404.0,-2295.0
25.0,55.0,-413.0,467.0,-408.0,-180.0,-1136.0,-4000.0
110.0,19.0,-380.0,583.0,-323.0,-252.0,-2546.0,-4000.0
169.0,-3.0,-328.0,909.0,-908.0,-227.0,-1637.0,-4000.0
80.0,-32.0,-187.0,1306.0,-1951.0,-173.0,-1011.0,-4000.0
69.0,-24.0,-157.0,1210.0,-2081.0,-116.0,-685.0,-4000.0
61.0,-22.0,-200.0,512.0,-1137.0,-166.0,-244.0,-4000.0
15.0,-72.0,-171.0,31.0,35.0,-267.0,-340.0,-4000.0
-16.0,-54.0,-170.0,-462.0,1189.0,-362.0,112.0,-4000.0
-70.0,-52.0,-282.0,-1154.0,1601.0,-442.0,53.0,-4000.0
-52.0,-62.0,-328.0,-1012.0,2760.0,-289.0,726.0,-4000.0
-94.0,-76.0,-234.0,-784.0,3020.0,-206.0,1540.0,-4000.0
-91.0,-104.0,-132.0,-789.0,2516.0,-262.0,1735.0,-4000.0
-54.0,-96.0,-42.0,-555.0,3346.0,-320.0,1395.0,-4000.0
-54.0,-67.0,-26.0,-450.0,4000.0,-222.0,-1071.0,-4000.0
-24.0,2.0,-18.0,-515.0,4000.0,31.0,-4000.0,-4000.0
47.0,38.0,-114.0,-841.0,4000.0,283.0,-4000.0,-4000.0
118.0,41.0,-376.0,-1142.0,4000.0,622.0,-4000.0,-4000.0
129.0,40.0,-348.0,-959.0,4000.0,693.0,-3816.0,-4000.0
103.0,-5.0,-180.0,-654.0,4000.0,429.0,-685.0,-4000.0
61.0,-31.0,-132.0,-168.0,4000.0,138.0,3103.0,-4000.0
139.0,-56.0,79.0,720.0,4000.0,-55.0,4000.0,-4000.0
176.0,-83.0,337.0,1684.0,4000.0,256.0,4000.0,-4000.0
67.0,-31.0,297.0,2384.0,4000.0,622.0,4000.0,-4000.0
7.0,-5.0,259.0,2543.0,4000.0,743.0,4000.0,-3695.0
-35.0,8.0,410.0,2337.0,4000.0,673.0,4000.0,-349.0
-83.0,22.0,582.0,1554.0,4000.0,641.0,3075.0,3455.0
-201.0,-6.0,296.0,231.0,4000.0,998.0,2125.0,4000.0
-385.0,5.0,-347.0,-390.0,3346.0,933.0,1214.0,4000.0
-254.0,-18.0,-348.0,-348.0,941.0,693.0,472.0,4000.0
86.0,-20.0,-172.0,-1421.0,-1672.0,641.0,1118.0,4000.0
187.0,-23.0,-585.0,-2778.0,-3988.0,542.0,1406.0,4000.0
238.0,-69.0,-892.0,-3233.0,-4000.0,220.0,673.0,4000.0
277.0,-70.0,-327.0,-2813.0,-4000.0,-63.0,138.0,4000.0
293.0,25.0,27.0,-2423.0,-4000.0,-162.0,-556.0,4000.0
293.0,144.0,13.0,-1805.0,-4000.0,-252.0,-1071.0,4000.0
167.0,162.0,67.0,-1174.0,-4000.0,-175.0,-2080.0,4000.0
116.0,135.0,119.0,-1044.0,-4000.0,-86.0,-3913.0,4000.0
137.0,114.0,205.0,-475.0,-4000.0,-15.0,-4000.0,4000.0
76.0,125.0,131.0,67.0,-4000.0,23.0,-4000.0,4000.0
4.0,121.0,204.0,837.0,-4000.0,50.0,-3687.0,4000.0
-46.0,75.0,331.0,1110.0,-3970.0,197.0,-4000.0,4000.0
-94.0,83.0,319.0,1367.0,-1383.0,486.0,-4000.0,4000.0
-152.0,70.0,163.0,1542.0,148.0,802.0,-4000.0,4000.0
-186.0,59.0,60.0,1363.0,-973.0,831.0,-1917.0,4000.0
-161.0,48.0,45.0,1275.0,-2578.0,673.0,-88.0,4000.0
-201.0,0.0,111.0,1119.0,-3315.0,888.0,-546.0,4000.0
-255.0,-72.0,101.0,1231.0,-4000.0,1140.0,3462.0,4000.0
-225.0,-167.0,63.0,1405.0,-4000.0,1148.0,4000.0,4000.0
-154.0,-207.0,85.0,1488.0,-4000.0,831.0,4000.0,4000.0
-175.0,-310.0,-50.0,1021.0,-4000.0,274.0,4000.0,4000.0
-138.0,-365.0,50.0,626.0,-4000.0,273.0,4000.0,4000.0
5.0,-289.0,343.0,442.0,-4000.0,290.0,4000.0,4000.0
-42.0,-326.0,325.0,158.0,-4000.0,144.0,4000.0,519.0
-13.0,-275.0,278.0,47.0,-4000.0,170.0,3086.0,-1756.0
104.0,-176.0,254.0,-87.0,-4000.0,-195.0,1540.0,-3387.0
44.0,-128.0,136.0,-107.0,-4000.0,-277.0,693.0,-4000.0
14.0,-68.0,-92.0,139.0,-4000.0,-104.0,-1490.0,-4000.0
11.0,-57.0,-585.0,187.0,-4000.0,-630.0,-1011.0,-4000.0
-46.0,-13.0,-605.0,-79.0,-4000.0,-1054.0,557.0,-4000.0
-10.0,20.0,-175.0,-900.0,-4000.0,-1311.0,1098.0,-4000.0
37.0,-14.0,-450.0,-2391.0,-4000.0,-1502.0,256.0,-4000.0
30.0,-37.0,-434.0,-2697.0,-4000.0,-988.0,-2459.0,-4000.0
88.0,-7.0,-185.0,-2405.0,-4000.0,348.0,-4000.0,-4000.0
127.0,23.0,-78.0,-1819.0,-4000.0,531.0,-4000.0,-4000.0
-29.0,23.0,215.0,-946.0,-4000.0,-453.0,-4000.0,-4000.0
-534.0,14.0,-11.0,-28.0,-4000.0,-414.0,-4000.0,-4000.0
-610.0,7.0,-92.0,2344.0,-3982.0,-445.0,-4000.0,-4000.0
-34.0,31.0,-90.0,3963.0,-2664.0,-442.0,-3000.0,-4000.0
228.0,71.0,-103.0,3176.0,-1292.0,-259.0,1526.0,-4000.0
473.0,106.0,-178.0,2074.0,-251.0,-276.0,2761.0,-4000.0
473.0,111.0,-225.0,467.0,929.0,-135.0,4000.0,-4000.0
287.0,94.0,-33.0,-1139.0,2320.0,-39.0,4000.0,-4000.0
190.0,95.0,89.0,-1625.0,3397.0,132.0,2712.0,-4000.0
-10.0,102.0,280.0,-2055.0,4000.0,-45.0,-536.0,-4000.0
39.0,81.0,238.0,-1675.0,4000.0,-190.0,-620.0,-4000.0
54.0,99.0,-2.0,-1206.0,4000.0,9.0,726.0,-4000.0
157.0,147.0,-255.0,-65.0,4000.0,303.0,-558.0,-4000.0
137.0,176.0,-230.0,1302.0,4000.0,278.0,-2120.0,-4000.0
80.0,200.0,65.0,264.0,4000.0,2.0,-3171.0,-4000.0
89.0,160.0,172.0,-1356.0,4000.0,-208.0,-4000.0,-4000.0
35.0,108.0,95.0,-2287.0,4000.0,-332.0,-3506.0,-3578.0
60.0,94.0,-28.0,-2814.0,4000.0,-358.0,-3053.0,-2004.0
44.0,86.0,241.0,-2046.0,4000.0,-533.0,-2728.0,-1018.0
-74.0,80.0,492.0,-1370.0,4000.0,-620.0,-3390.0,-76.0
-254.0,87.0,333.0,-1546.0,4000.0,-706.0,-2934.0,1091.0
-283.0,76.0,260.0,-1329.0,4000.0,-565.0,-2805.0,2283.0
-258.0,56.0,266.0,-914.0,4000.0,-419.0,-2594.0,4000.0
-226.0,93.0,306.0,-849.0,4000.0,-474.0,-1605.0,4000.0
-183.0,99.0,229.0,-594.0,4000.0,-32.0,-212.0,3469.0
-150.0,95.0,158.0,47.0,4000.0,673.0,948.0,4000.0
-85.0,94.0,114.0,356.0,4000.0,563.0,1646.0,4000.0
-58.0,81.0,69.0,1104.0,4000.0,296.0,1575.0,4000.0
-29.0,58.0,21.0,1892.0,4000.0,498.0,-342.0,4000.0
9.0,25.0,-42.0,2205.0,4000.0,522.0,-1173.0,4000.0
8.0,31.0,9.0,2478.0,4000.0,788.0,-1266.0,4000.0
24.0,7.0,47.0,2387.0,3983.0,749.0,-500.0,4000.0
24.0,3.0,26.0,2086.0,3297.0,522.0,1693.0,4000.0
60.0,17.0,-9.0,1696.0,2630.0,310.0,3795.0,4000.0
109.0,20.0,-40.0,1450.0,1604.0,-262.0,4000.0,4000.0
90.0,42.0,-34.0,1145.0,713.0,-416.0,2956.0,4000.0
69.0,34.0,-78.0,752.0,1071.0,-541.0,816.0,4000.0
27.0,51.0,-56.0,447.0,2035.0,-613.0,20.0,4000.0
-193.0,47.0,-83.0,400.0,1995.0,-507.0,-837.0,4000.0
-634.0,39.0,-138.0,337.0,1769.0,-511.0,-1600.0,4000.0
-777.0,50.0,93.0,-140.0,1509.0,-224.0,303.0,4000.0
-241.0,24.0,-98.0,-401.0,480.0,-114.0,693.0,4000.0
456.0,4.0,-318.0,-314.0,234.0,-84.0,33.0,4000.0
745.0,-39.0,-101.0,569.0,1254.0,404.0,-436.0,4000.0
725.0,-83.0,-93.0,1881.0,2825.0,823.0,-313.0,4000.0
436.0,-106.0,-174.0,1501.0,3410.0,636.0,-273.0,4000.0
249.0,-106.0,-234.0,538.0,2748.0,-146.0,181.0,4000.0
160.0,-118.0,-580.0,209.0,2878.0,-532.0,1007.0,4000.0
44.0,-104.0,-1387.0,-558.0,2642.0,-342.0,1323.0,4000.0
14.0,-171.0,-1134.0,-1108.0,1669.0,-109.0,1249.0,4000.0
-9.0,-220.0,183.0,-1539.0,1995.0,219.0,767.0,4000.0
-47.0,-247.0,973.0,-1370.0,3464.0,506.0,400.0,4000.0
-193.0,-280.0,1375.0,-920.0,4000.0,918.0,110.0,4000.0
-378.0,-236.0,1184.0,-742.0,3875.0,953.0,107.0,3340.0
-445.0,-207.0,764.0,-554.0,4000.0,758.0,-227.0,2819.0
-379.0,-35.0,381.0,-332.0,4000.0,837.0,-381.0,4000.0
-262.0,40.0,-217.0,-143.0,4000.0,520.0,-185.0,3741.0
-76.0,85.0,-422.0,-169.0,3085.0,81.0,227.0,1395.0
-36.0,99.0,-661.0,-68.0,1527.0,-289.0,83.0,629.0
-14.0,26.0,-841.0,-97.0,1352.0,-188.0,-318.0,666.0
29.0,-84.0,-251.0,-88.0,1462.0,39.0,-125.0,980.0
3.0,-127.0,337.0,-95.0,1083.0,-117.0,-187.0,2575.0
18.0,-16.0,547.0,-107.0,1083.0,-51.0,302.0,3831.0
-5.0,-26.0,627.0,-71.0,1018.0,-173.0,619.0,2442.0
37.0,-35.0,430.0,-48.0,941.0,-307.0,259.0,685.0
31.0,-64.0,39.0,-7.0,615.0,-531.0,669.0,1260.0
40.0,-38.0,-178.0,54.0,-163.0,-685.0,1064.0,1989.0
96.0,121.0,-362.0,113.0,-584.0,-685.0,732.0,2640.0
96.0,305.0,-733.0,81.0,-738.0,-768.0,27.0,3700.0
51.0,437.0,-841.0,107.0,-746.0,-703.0,-344.0,1716.0
12.0,353.0,-298.0,122.0,-1228.0,-743.0,-550.0,361.0
21.0,196.0,112.0,180.0,-1691.0,-773.0,-680.0,39.0
31.0,83.0,121.0,157.0,-1250.0,-743.0,-811.0,-1104.0
36.0,2.0,-445.0,120.0,-860.0,-596.0,-1243.0,-548.0
4.0,-20.0,-1732.0,50.0,-647.0,-393.0,-1454.0,-80.0
-27.0,-5.0,-4000.0,-2.0,-818.0,-221.0,-1664.0,-744.0
-66.0,-39.0,-4000.0,40.0,-1731.0,-1.0,-1462.0,-1143.0
-50.0,-49.0,-4000.0,10.0,-1333.0,415.0,-1438.0,-427.0
-30.0,-26.0,2095.0,-9.0,379.0,921.0,-1384.0,-182.0
-50.0,-26.0,4000.0,-120.0,2189.0,1123.0,-1141.0,-529.0
-60.0,16.0,4000.0,-168.0,2776.0,887.0,-882.0,1026.0
-41.0,19.0,4000.0,-253.0,1734.0,563.0,-394.0,1598.0
-36.0,23.0,4000.0,-373.0,267.0,399.0,-48.0,535.0
-12.0,44.0,2548.0,-397.0,-1007.0,89.0,30.0,296.0
27.0,49.0,533.0,-373.0,-1833.0,-89.0,14.0,386.0
24.0,178.0,611.0,-316.0,-1228.0,-14.0,76.0,-5.0
33.0,294.0,-536.0,-279.0,888.0,20.0,244.0,-259.0
-3.0,182.0,-1158.0,-160.0,823.0,-195.0,380.0,-268.0
-11.0,102.0,-1616.0,-23.0,-1584.0,-154.0,416.0,-1626.0
-41.0,-34.0,-1581.0,106.0,-3726.0,282.0,642.0,-3192.0
-93.0,-175.0,-1758.0,286.0,-3753.0,463.0,749.0,-3708.0
-97.0,-182.0,-1911.0,368.0,-3391.0,427.0,767.0,-2800.0
-74.0,-267.0,-1760.0,243.0,-3754.0,325.0,687.0,-1957.0
-67.0,-356.0,-1321.0,114.0,-3929.0,213.0,460.0,-3191.0
-33.0,-427.0,288.0,22.0,-4000.0,-36.0,571.0,-4000.0
48.0,-403.0,142.0,-276.0,-4000.0,-224.0,897.0,-4000.0
43.0,-343.0,438.0,-527.0,-4000.0,-216.0,877.0,-4000.0
82.0,-38.0,1041.0,-523.0,-4000.0,18.0,643.0,-4000.0
76.0,20.0,1361.0,-418.0,-4000.0,345.0,669.0,-4000.0
35.0,-89.0,1192.0,-325.0,-4000.0,427.0,628.0,-4000.0
36.0,-37.0,553.0,-276.0,-4000.0,191.0,883.0,-3504.0
-4.0,-85.0,246.0,-198.0,-4000.0,-86.0,1469.0,-2186.0
37.0,-47.0,-88.0,-181.0,-4000.0,-201.0,1800.0,-358.0
11.0,-31.0,-71.0,-125.0,-4000.0,-394.0,1825.0,1598.0
6.0,-31.0,-234.0,-128.0,-4000.0,-423.0,1776.0,2498.0
45.0,-30.0,-281.0,-140.0,-4000.0,-434.0,1670.0,4000.0
31.0,40.0,-538.0,18.0,-3883.0,-550.0,1457.0,4000.0
116.0,121.0,-759.0,93.0,-1265.0,-532.0,1137.0,4000.0
122.0,186.0,-863.0,199.0,1800.0,-440.0,1010.0,4000.0
86.0,164.0,-912.0,316.0,4000.0,-416.0,954.0,4000.0
82.0,189.0,-774.0,258.0,4000.0,-159.0,824.0,4000.0
95.0,281.0,-628.0,118.0,4000.0,-143.0,608.0,4000.0
73.0,254.0,-495.0,261.0,4000.0,-338.0,101.0,4000.0
-60.0,58.0,-445.0,431.0,4000.0,-517.0,-55.0,3456.0
-168.0,24.0,-413.0,95.0,4000.0,-802.0,315.0,2159.0
-154.0,225.0,-357.0,-187.0,4000.0,-838.0,250.0,-154.0
-80.0,160.0,-190.0,-152.0,4000.0,-1005.0,-167.0,-2735.0
-65.0,341.0,-150.0,-81.0,4000.0,-1038.0,-485.0,-4000.0
-44.0,380.0,-129.0,-10.0,4000.0,-1070.0,-615.0,-4000.0
-82.0,-92.0,-129.0,-110.0,4000.0,-1010.0,-678.0,-4000.0
-132.0,-375.0,-38.0,299.0,4000.0,-741.0,-971.0,-4000.0
-95.0,-635.0,60.0,598.0,4000.0,-715.0,-1032.0,-4000.0
-26.0,-730.0,30.0,286.0,4000.0,-555.0,-1119.0,-4000.0
-23.0,-575.0,98.0,240.0,3854.0,-428.0,-1063.0,-1494.0
-37.0,-561.0,238.0,308.0,2513.0,-148.0,-565.0,3096.0
-12.0,-627.0,272.0,225.0,2060.0,-69.0,-355.0,4000.0
-32.0,-462.0,158.0,99.0,686.0,243.0,-456.0,4000.0
-4.0,-135.0,108.0,142.0,-229.0,719.0,294.0,4000.0
11.0,67.0,84.0,197.0,-2296.0,771.0,759.0,4000.0
-29.0,187.0,49.0,-31.0,-4000.0,967.0,1183.0,4000.0
-39.0,241.0,-76.0,-336.0,-4000.0,1033.0,1645.0,4000.0
-37.0,281.0,-11.0,-198.0,-4000.0,1189.0,1592.0,4000.0
-11.0,173.0,107.0,-123.0,-2238.0,1409.0,1540.0,4000.0
-24.0,82.0,-129.0,-409.0,-1797.0,1474.0,661.0,4000.0
-40.0,144.0,-263.0,-652.0,-2531.0,1273.0,307.0,4000.0
9.0,205.0,-378.0,-841.0,-2186.0,1142.0,-774.0,3198.0
-8.0,294.0,-425.0,-568.0,-1114.0,1313.0,-1765.0,1012.0
-19.0,309.0,-673.0,-278.0,945.0,1443.0,-2270.0,-750.0
-3.0,315.0,-405.0,-171.0,2581.0,1443.0,-2740.0,-1579.0
-41.0,225.0,244.0,-12.0,2439.0,1207.0,-2511.0,-665.0
-98.0,173.0,476.0,-97.0,1722.0,987.0,-2433.0,-659.0
-276.0,157.0,772.0,-183.0,1124.0,929.0,-1979.0,-562.0
-628.0,128.0,728.0,-153.0,1198.0,791.0,-1796.0,-1534.0
-453.0,108.0,385.0,-48.0,1995.0,876.0,-1388.0,-2865.0
54.0,62.0,-774.0,13.0,3397.0,997.0,-1104.0,-2992.0
306.0,117.0,-1279.0,80.0,4000.0,823.0,-613.0,-2676.0
564.0,105.0,-338.0,146.0,4000.0,921.0,-93.0,-2605.0
473.0,92.0,288.0,169.0,3855.0,1063.0,-84.0,-2828.0
262.0,102.0,979.0,220.0,4000.0,953.0,3.0,-2812.0
151.0,87.0,1284.0,204.0,4000.0,510.0,-133.0,-2682.0
74.0,81.0,1163.0,264.0,4000.0,28.0,183.0,-2800.0
-27.0,105.0,923.0,394.0,4000.0,-398.0,521.0,-3268.0
-181.0,138.0,524.0,472.0,4000.0,-712.0,594.0,-2128.0
-85.0,93.0,306.0,590.0,4000.0,-901.0,749.0,-628.0
72.0,36.0,68.0,777.0,4000.0,-1005.0,838.0,-581.0
127.0,-13.0,103.0,858.0,4000.0,-897.0,772.0,-197.0
131.0,6.0,134.0,210.0,4000.0,-932.0,838.0,-234.0
190.0,10.0,73.0,-550.0,4000.0,-1038.0,1007.0,-175.0
180.0,15.0,64.0,-580.0,4000.0,-1075.0,1214.0,474.0
89.0,30.0,53.0,-679.0,4000.0,-1032.0,1345.0,409.0
3.0,28.0,-57.0,-284.0,4000.0,-982.0,1379.0,-126.0
-45.0,27.0,-175.0,199.0,4000.0,-722.0,1406.0,-1860.0
-80.0,19.0,-64.0,-226.0,3541.0,-316.0,1092.0,-3991.0
-112.0,8.0,52.0,-185.0,2160.0,-159.0,1033.0,-4000.0
-103.0,-16.0,-121.0,-208.0,1722.0,-49.0,1019.0,-4000.0
-118.0,-30.0,-265.0,-574.0,1462.0,-102.0,759.0,-4000.0
-81.0,-42.0,-255.0,-711.0,1417.0,-195.0,445.0,-4000.0
-89.0,-31.0,-226.0,-891.0,1539.0,-200.0,246.0,-4000.0
-184.0,-28.0,-135.0,-864.0,1839.0,-240.0,64.0,-4000.0
-209.0,-79.0,-145.0,-702.0,3541.0,-224.0,-269.0,-4000.0
-225.0,-128.0,-135.0,-258.0,4000.0,-277.0,-603.0,-4000.0
-170.0,-97.0,-164.0,72.0,4000.0,-320.0,-1035.0,-4000.0
-93.0,-77.0,-177.0,158.0,2513.0,-297.0,-1376.0,-4000.0
-81.0,-78.0,-137.0,366.0,1378.0,-255.0,-1454.0,-4000.0
-36.0,-63.0,-166.0,645.0,2386.0,-184.0,-1233.0,-4000.0
-28.0,-39.0,-183.0,524.0,758.0,-146.0,-1332.0,-4000.0
-47.0,31.0,-169.0,512.0,-4000.0,-102.0,-1755.0,-4000.0
-64.0,70.0,-193.0,431.0,-4000.0,-59.0,-1832.0,-3198.0
-65.0,80.0,-437.0,272.0,-4000.0,22.0,-1586.0,-2071.0
-58.0,99.0,-613.0,538.0,-4000.0,31.0,-1448.0,-863.0
-34.0,85.0,-631.0,394.0,-4000.0,9.0,-1377.0,116.0
-8.0,195.0,-753.0,264.0,-4000.0,158.0,-1043.0,1085.0
-8.0,244.0,-401.0,337.0,-4000.0,415.0,-707.0,2354.0
9.0,67.0,349.0,533.0,-4000.0,506.0,-353.0,3654.0
11.0,62.0,782.0,923.0,-4000.0,301.0,-184.0,4000.0
-21.0,108.0,937.0,1083.0,-4000.0,-97.0,-37.0,4000.0
-16.0,-89.0,813.0,941.0,-4000.0,-352.0,94.0,4000.0
-40.0,-299.0,563.0,621.0,-4000.0,-394.0,156.0,4000.0
-60.0,-462.0,207.0,361.0,-4000.0,-354.0,472.0,4000.0
-7.0,-479.0,-35.0,377.0,-4000.0,-239.0,759.0,4000.0
48.0,-330.0,-70.0,459.0,-4000.0,-320.0,1027.0,4000.0
74.0,-160.0,-180.0,238.0,-4000.0,-580.0,1158.0,4000.0
38.0,-91.0,32.0,270.0,-4000.0,-668.0,527.0,4000.0
-2.0,-31.0,168.0,210.0,-4000.0,-501.0,-279.0,4000.0
3.0,160.0,16.0,-645.0,-4000.0,-362.0,-394.0,4000.0
14.0,152.0,24.0,-1271.0,-3197.0,-72.0,-745.0,1117.0
-8.0,114.0,109.0,-1329.0,-2318.0,321.0,-1397.0,-919.0
-4.0,222.0,150.0,-1657.0,-1442.0,93.0,-920.0,-1755.0
-1.0,33.0,-6.0,-1887.0,-746.0,-323.0,1645.0,-1253.0
0.0,-112.0,-95.0,-1787.0,235.0,0.0,3038.0,204.0
2.0,-6.0,-165.0,-1427.0,1083.0,429.0,1825.0,1716.0
-24.0,20.0,-198.0,-1265.0,1538.0,1083.0,1190.0,3067.0
-234.0,121.0,-64.0,-1686.0,1918.0,2112.0,319.0,3588.0
-354.0,170.0,-71.0,-1821.0,2113.0,1919.0,380.0,2754.0
-19.0,170.0,-61.0,-1396.0,2251.0,669.0,1326.0,1688.0
147.0,215.0,-102.0,-1157.0,1970.0,-1831.0,1019.0,784.0
134.0,188.0,-111.0,-809.0,1591.0,-3572.0,954.0,-338.0
199.0,154.0,-6.0,115.0,1775.0,-1376.0,1027.0,-1469.0
298.0,83.0,45.0,568.0,1824.0,506.0,1721.0,-2427.0
235.0,17.0,60.0,785.0,1657.0,857.0,1223.0,-2472.0
59.0,-32.0,77.0,1228.0,1462.0,1263.0,610.0,-1245.0
226.0,-134.0,52.0,1435.0,1443.0,-651.0,339.0,1000.0
222.0,-188.0,-5.0,1501.0,1509.0,-3063.0,-313.0,4000.0
214.0,-166.0,-47.0,1696.0,1352.0,-2838.0,-346.0,4000.0
174.0,-176.0,-52.0,1749.0,1213.0,-200.0,-941.0,4000.0
31.0,-177.0,-26.0,1162.0,1148.0,706.0,-529.0,4000.0
-1.0,-166.0,-68.0,842.0,1140.0,1466.0,-322.0,4000.0
-102.0,-103.0,-56.0,740.0,751.0,3658.0,-440.0,4000.0
-135.0,-43.0,-64.0,634.0,209.0,4000.0,-53.0,4000.0
-154.0,-20.0,-68.0,923.0,-537.0,3677.0,759.0,4000.0
-246.0,27.0,-32.0,1045.0,-1007.0,1798.0,1540.0,4000.0
-307.0,87.0,-30.0,864.0,-1097.0,576.0,478.0,4000.0
-205.0,135.0,7.0,499.0,-1442.0,-384.0,-1291.0,4000.0
-157.0,103.0,15.0,164.0,-1587.0,-1699.0,-1665.0,2819.0
-104.0,82.0,28.0,-101.0,-1606.0,-2712.0,-1490.0,1077.0
-14.0,89.0,23.0,-570.0,-1450.0,-1495.0,-1382.0,-102.0
56.0,102.0,-22.0,-891.0,-818.0,-2.0,-98.0,-971.0
61.0,83.0,-50.0,-935.0,78.0,602.0,1705.0,-1735.0
12.0,17.0,-101.0,-810.0,896.0,2306.0,2377.0,-2179.0
39.0,-5.0,-174.0,-660.0,1733.0,3264.0,558.0,-2556.0
73.0,-50.0,-53.0,-391.0,2569.0,3345.0,-1914.0,-3773.0
101.0,-106.0,85.0,-75.0,3269.0,1380.0,-2369.0,-4000.0
127.0,-30.0,42.0,-208.0,4000.0,-1357.0,-1551.0,-4000.0
209.0,-4.0,46.0,-236.0,4000.0,-2418.0,-505.0,-4000.0
273.0,-46.0,56.0,39.0,4000.0,-1688.0,551.0,-4000.0
232.0,-24.0,39.0,198.0,4000.0,693.0,1825.0,-4000.0
139.0,-20.0,-38.0,282.0,4000.0,1981.0,3788.0,-4000.0
17.0,-5.0,-68.0,172.0,4000.0,1313.0,2879.0,-4000.0
-51.0,-11.0,-79.0,107.0,4000.0,87.0,248.0,-4000.0
-88.0,2.0,-10.0,228.0,4000.0,-2315.0,311.0,-4000.0
-146.0,14.0,21.0,73.0,4000.0,-906.0,44.0,-4000.0
-189.0,-11.0,-2.0,-25.0,4000.0,3474.0,-211.0,-4000.0
-204.0,-17.0,42.0,-23.0,4000.0,2485.0,-136.0,-4000.0
-180.0,-31.0,-2.0,-92.0,4000.0,-116.0,-703.0,-4000.0
-98.0,-35.0,7.0,-82.0,3772.0,-1053.0,-532.0,-4000.0
-73.0,-76.0,-12.0,-95.0,3232.0,-2575.0,-664.0,-4000.0
-105.0,-47.0,-22.0,-84.0,3204.0,-2549.0,-522.0,-4000.0
-82.0,-38.0,-26.0,-78.0,3127.0,113.0,-550.0,-4000.0
-105.0,-70.0,-8.0,-83.0,3074.0,2939.0,-587.0,-4000.0
-135.0,-59.0,46.0,-90.0,3476.0,1604.0,-500.0,-3527.0
-106.0,-72.0,45.0,-87.0,3729.0,-638.0,-533.0,-1594.0
-63.0,-50.0,-13.0,-71.0,4000.0,-149.0,-459.0,890.0
-62.0,99.0,-97.0,-78.0,4000.0,-234.0,-485.0,3263.0
-23.0,382.0,17.0,-65.0,4000.0,-1989.0,-353.0,4000.0
45.0,443.0,112.0,-54.0,4000.0,-2713.0,-359.0,4000.0
46.0,201.0,126.0,-73.0,4000.0,-1056.0,-294.0,3721.0
56.0,-96.0,169.0,-91.0,4000.0,-501.0,-391.0,3996.0
73.0,-423.0,103.0,-78.0,4000.0,-1396.0,-485.0,4000.0
82.0,-562.0,32.0,-72.0,4000.0,-2867.0,-459.0,4000.0
47.0,-495.0,93.0,-96.0,4000.0,-2608.0,-565.0,4000.0
49.0,-314.0,277.0,-153.0,4000.0,-737.0,-680.0,4000.0
92.0,-86.0,433.0,-202.0,4000.0,296.0,-704.0,4000.0
104.0,2.0,474.0,-234.0,4000.0,1118.0,-475.0,4000.0
123.0,199.0,460.0,-220.0,2646.0,1462.0,-159.0,4000.0
92.0,229.0,410.0,-242.0,-1963.0,1222.0,116.0,4000.0
53.0,19.0,253.0,-232.0,-1463.0,-647.0,246.0,4000.0
7.0,-282.0,-54.0,-196.0,-1700.0,-2351.0,209.0,4000.0
-5.0,-383.0,-486.0,-149.0,-2512.0,-1461.0,90.0,3662.0
-3.0,-43.0,-737.0,-104.0,-3262.0,445.0,47.0,2437.0
-27.0,331.0,-702.0,-113.0,-4000.0,1417.0,-27.0,1460.0
-29.0,550.0,-886.0,-76.0,-4000.0,1333.0,-17.0,1216.0
-49.0,534.0,-821.0,-85.0,-4000.0,504.0,-69.0,988.0
-68.0,485.0,-32.0,-85.0,-4000.0,97.0,-327.0,1012.0
-70.0,404.0,395.0,-92.0,-4000.0,-30.0,-272.0,1142.0
-42.0,244.0,443.0,-109.0,-4000.0,-220.0,-260.0,751.0
-18.0,240.0,439.0,-101.0,-4000.0,76.0,-341.0,294.0
-23.0,516.0,152.0,-81.0,-4000.0,48.0,-379.0,-129.0
33.0,1120.0,-10.0,-28.0,-4000.0,-43.0,-310.0,-315.0
67.0,1553.0,-308.0,19.0,-4000.0,-219.0,-43.0,71.0
23.0,1331.0,-432.0,77.0,-4000.0,-289.0,97.0,312.0
-44.0,982.0,-385.0,87.0,-4000.0,-107.0,172.0,-321.0
-55.0,430.0,-428.0,88.0,-4000.0,25.0,189.0,1.0
-46.0,-241.0,-643.0,100.0,-4000.0,67.0,206.0,21.0
-82.0,-836.0,-698.0,161.0,-4000.0,83.0,201.0,-685.0
-126.0,-1188.0,-255.0,174.0,-3767.0,215.0,333.0,-431.0
-109.0,-1415.0,-238.0,187.0,-3185.0,367.0,356.0,-687.0
-58.0,-1720.0,7.0,189.0,-3001.0,544.0,249.0,-317.0
-52.0,-1773.0,-232.0,120.0,-3639.0,563.0,416.0,-73.0
-114.0,-1783.0,-1778.0,76.0,-4000.0,506.0,407.0,50.0
-140.0,-1401.0,-1811.0,23.0,-4000.0,467.0,391.0,72.0
-76.0,-793.0,115.0,-6.0,-3066.0,571.0,464.0,-338.0
15.0,-398.0,1387.0,-49.0,-1359.0,687.0,412.0,-254.0
119.0,-179.0,2030.0,-28.0,-1267.0,693.0,542.0,-390.0
95.0,-49.0,2030.0,-25.0,-2318.0,822.0,597.0,-340.0
15.0,124.0,1348.0,-61.0,-3172.0,967.0,441.0,-366.0
11.0,205.0,541.0,5.0,-3433.0,1010.0,557.0,153.0
27.0,144.0,-125.0,-6.0,-2935.0,1118.0,759.0,778.0
-11.0,248.0,218.0,-29.0,-1121.0,1207.0,571.0,1077.0
-14.0,304.0,345.0,-57.0,-28.0,1071.0,593.0,1142.0
-10.0,245.0,246.0,-51.0,1059.0,1051.0,734.0,716.0
34.0,298.0,251.0,-13.0,2955.0,815.0,655.0,612.0
102.0,331.0,95.0,-49.0,4000.0,528.0,942.0,522.0
109.0,338.0,69.0,-69.0,4000.0,433.0,1381.0,383.0
89.0,355.0,-87.0,-64.0,4000.0,327.0,1667.0,163.0
100.0,408.0,-228.0,-10.0,4000.0,319.0,1801.0,-139.0
104.0,435.0,-347.0,35.0,4000.0,207.0,1593.0,-496.0
32.0,420.0,-206.0,75.0,4000.0,71.0,1379.0,-295.0
7.0,386.0,-153.0,37.0,4000.0,-50.0,1149.0,751.0
8.0,377.0,-102.0,4.0,4000.0,-327.0,855.0,621.0
-28.0,347.0,-29.0,37.0,4000.0,-526.0,680.0,296.0
-48.0,323.0,-146.0,54.0,4000.0,-586.0,413.0,361.0
-29.0,341.0,-802.0,61.0,2630.0,-731.0,281.0,-333.0
-4.0,321.0,-1348.0,40.0,2374.0,-867.0,302.0,-317.0
27.0,300.0,-454.0,-9.0,1865.0,-932.0,607.0,-462.0
-3.0,269.0,369.0,-47.0,338.0,-945.0,486.0,-606.0
-73.0,225.0,590.0,-44.0,627.0,-1050.0,-923.0,-525.0
-74.0,197.0,564.0,-71.0,2439.0,-1075.0,-1608.0,-1001.0
-98.0,176.0,299.0,-70.0,3428.0,-1010.0,-1358.0,-863.0
-116.0,196.0,284.0,-44.0,4000.0,-1106.0,-1187.0,-692.0
-140.0,194.0,5.0,-87.0,3982.0,-1198.0,-1832.0,-431.0
-153.0,115.0,-95.0,-178.0,2491.0,-1270.0,-3390.0,-28.0
-132.0,11.0,-91.0,-228.0,2057.0,-1316.0,-2869.0,-58.0
-128.0,-63.0,-190.0,-233.0,1518.0,-1372.0,-235.0,-164.0
-79.0,-66.0,-99.0,-169.0,218.0,-1248.0,2049.0,-97.0
-21.0,-52.0,23.0,-125.0,-3995.0,-1053.0,1721.0,-56.0
-32.0,-104.0,152.0,-137.0,-4000.0,-973.0,2.0,6.0
-34.0,-176.0,96.0,-98.0,-4000.0,-920.0,133.0,304.0
-12.0,-193.0,-139.0,-35.0,-4000.0,-1047.0,432.0,547.0
-16.0,-142.0,-672.0,-43.0,-4000.0,-940.0,-772.0,725.0
-23.0,-100.0,-552.0,-93.0,-341.0,-721.0,-2402.0,1026.0
-28.0,-118.0,158.0,-6.0,1417.0,-338.0,-2355.0,1346.0
-52.0,-121.0,450.0,69.0,592.0,-83.0,-717.0,1207.0
-25.0,-89.0,612.0,61.0,-350.0,-411.0,-40.0,1150.0
32.0,-44.0,433.0,75.0,-2472.0,-651.0,-129.0,1252.0
72.0,-83.0,313.0,105.0,-4000.0,-932.0,248.0,1053.0
80.0,-270.0,303.0,152.0,-4000.0,-1316.0,665.0,1045.0
72.0,-432.0,108.0,152.0,-4000.0,-1605.0,1064.0,1012.0
105.0,-395.0,43.0,207.0,-3689.0,-1961.0,1007.0,795.0
60.0,-310.0,-2.0,228.0,-1609.0,-2286.0,838.0,369.0
27.0,-304.0,-37.0,223.0,108.0,-2137.0,759.0,-109.0
42.0,-227.0,42.0,276.0,2060.0,-145.0,622.0,-360.0
18.0,-137.0,165.0,296.0,3623.0,3166.0,707.0,-427.0
45.0,-39.0,-206.0,255.0,4000.0,4000.0,767.0,-464.0
40.0,190.0,-707.0,107.0,4000.0,4000.0,759.0,-489.0
-66.0,211.0,-585.0,-78.0,4000.0,4000.0,537.0,-496.0
-296.0,-32.0,-198.0,-162.0,4000.0,3980.0,397.0,-758.0
-286.0,-183.0,384.0,-260.0,4000.0,3705.0,412.0,-875.0
-21.0,-318.0,611.0,-359.0,4000.0,3296.0,429.0,-883.0
122.0,-347.0,512.0,-273.0,4000.0,2295.0,494.0,-1175.0
277.0,-287.0,306.0,-186.0,4000.0,1157.0,655.0,-1322.0
346.0,-161.0,-306.0,-155.0,4000.0,113.0,759.0,-1390.0
277.0,-40.0,-354.0,-59.0,4000.0,-531.0,838.0,-1534.0
204.0,50.0,-414.0,134.0,4000.0,-881.0,767.0,-1679.0
38.0,102.0,-643.0,252.0,4000.0,-743.0,506.0,-1577.0
-33.0,147.0,-429.0,252.0,4000.0,-442.0,-11.0,-1497.0
-79.0,307.0,-285.0,272.0,3787.0,131.0,-668.0,-1534.0
-457.0,323.0,-212.0,280.0,2290.0,667.0,-947.0,-1392.0
-909.0,329.0,-206.0,381.0,641.0,1009.0,-1096.0,-1175.0
-492.0,298.0,-178.0,433.0,-307.0,1136.0,-1184.0,-1130.0
127.0,216.0,93.0,438.0,-474.0,882.0,-1323.0,-1279.0
393.0,148.0,173.0,446.0,-803.0,522.0,-1497.0,-1078.0
709.0,69.0,73.0,490.0,-746.0,61.0,-1848.0,-464.0
603.0,43.0,136.0,512.0,-416.0,-85.0,-2270.0,596.0
408.0,12.0,101.0,467.0,-681.0,-14.0,-2546.0,1716.0
163.0,-8.0,95.0,425.0,-2341.0,127.0,-2353.0,2510.0
45.0,-16.0,111.0,335.0,-4000.0,272.0,-1527.0,3002.0
28.0,-32.0,158.0,210.0,-4000.0,289.0,-933.0,3275.0
-55.0,-46.0,256.0,73.0,-4000.0,57.0,-849.0,4000.0
15.0,-16.0,179.0,81.0,-4000.0,-594.0,-876.0,4000.0
-14.0,-14.0,178.0,138.0,-4000.0,-926.0,-973.0,1020.0
-5.0,-31.0,230.0,142.0,-4000.0,-533.0,-1189.0,-3480.0
-23.0,-47.0,284.0,63.0,-4000.0,-83.0,-1048.0,-4000.0
-93.0,-39.0,256.0,-86.0,-4000.0,-62.0,-685.0,-4000.0
-149.0,-34.0,110.0,-202.0,-4000.0,-227.0,-200.0,-4000.0
-213.0,-78.0,5.0,-437.0,-4000.0,-220.0,86.0,-4000.0
-339.0,-89.0,-119.0,-724.0,-4000.0,-565.0,-298.0,-4000.0
-339.0,-85.0,-143.0,-800.0,-4000.0,-579.0,-587.0,-4000.0
-182.0,-66.0,-104.0,-717.0,-4000.0,144.0,-200.0,-4000.0
-62.0,-42.0,-244.0,-669.0,-4000.0,166.0,486.0,-3373.0
27.0,-88.0,-206.0,-462.0,-4000.0,-58.0,791.0,-1856.0
21.0,-85.0,26.0,-276.0,-4000.0,-186.0,665.0,-2153.0
-152.0,-47.0,-62.0,-271.0,-4000.0,-373.0,166.0,-1013.0
-232.0,-68.0,-232.0,-231.0,-4000.0,-613.0,-546.0,2819.0
-38.0,-58.0,-317.0,-106.0,-4000.0,-790.0,-992.0,4000.0
26.0,-59.0,-147.0,55.0,-4000.0,-1140.0,-852.0,4000.0
-46.0,-87.0,7.0,-19.0,-4000.0,-1883.0,-151.0,4000.0
-48.0,-104.0,-133.0,-219.0,-4000.0,-2493.0,264.0,4000.0
86.0,-34.0,-198.0,-352.0,-4000.0,-2648.0,-73.0,4000.0
15.0,12.0,-230.0,-485.0,-2484.0,-1727.0,-238.0,4000.0
-294.0,-13.0,-206.0,-527.0,-2173.0,-1107.0,-141.0,4000.0
-438.0,37.0,-285.0,-652.0,-3315.0,-1237.0,-182.0,4000.0
-381.0,53.0,-250.0,-523.0,-3929.0,-1669.0,49.0,4000.0
-241.0,20.0,85.0,-233.0,-1953.0,-1976.0,-59.0,3275.0
-126.0,46.0,246.0,-163.0,3363.0,-1699.0,-723.0,2572.0
-278.0,67.0,233.0,-109.0,4000.0,-1486.0,-772.0,2754.0
-1260.0,54.0,177.0,-37.0,4000.0,-1248.0,-416.0,3455.0
-719.0,70.0,160.0,-50.0,4000.0,-932.0,-774.0,3080.0
824.0,85.0,183.0,20.0,4000.0,-779.0,-1206.0,3552.0
1181.0,138.0,152.0,180.0,4000.0,-630.0,-1487.0,3910.0
1283.0,159.0,53.0,385.0,4000.0,-373.0,-1991.0,3996.0
870.0,135.0,50.0,590.0,4000.0,-358.0,-1702.0,3741.0
574.0,148.0,138.0,467.0,4000.0,95.0,-607.0,2705.0
339.0,117.0,164.0,264.0,4000.0,586.0,152.0,775.0
157.0,75.0,202.0,2.0,4000.0,-37.0,889.0,-2283.0
192.0,60.0,148.0,-227.0,4000.0,-1107.0,1288.0,-4000.0
80.0,109.0,48.0,-336.0,4000.0,-1198.0,1255.0,-4000.0
95.0,142.0,27.0,-397.0,4000.0,292.0,1202.0,-4000.0
3.0,109.0,67.0,-98.0,4000.0,1982.0,1013.0,-4000.0
-16.0,103.0,120.0,406.0,4000.0,3723.0,1248.0,-4000.0
-55.0,95.0,108.0,297.0,4000.0,3900.0,1129.0,-4000.0
-61.0,80.0,38.0,-143.0,4000.0,1937.0,510.0,-2218.0
-70.0,96.0,2.0,-133.0,4000.0,2254.0,303.0,1207.0
-136.0,82.0,0.0,-445.0,4000.0,3083.0,486.0,3198.0
-169.0,76.0,6.0,-635.0,4000.0,2512.0,551.0,3676.0
-220.0,95.0,-129.0,-770.0,1091.0,3018.0,510.0,3275.0
-207.0,77.0,-242.0,-818.0,-4000.0,3101.0,1190.0,283.0
-171.0,83.0,-70.0,-513.0,-4000.0,2555.0,2696.0,-1208.0
-197.0,67.0,-111.0,-48.0,-4000.0,1628.0,4000.0,-1111.0
-223.0,22.0,-107.0,197.0,-4000.0,795.0,4000.0,1077.0
-193.0,11.0,-30.0,42.0,-4000.0,473.0,4000.0,3356.0
-132.0,-14.0,-22.0,-20.0,-4000.0,-155.0,4000.0,4000.0
56.0,-46.0,-56.0,-735.0,-4000.0,394.0,4000.0,4000.0
196.0,-85.0,-151.0,-497.0,-4000.0,967.0,4000.0,4000.0
45.0,-98.0,14.0,-397.0,-4000.0,1580.0,4000.0,4000.0
-141.0,-66.0,11.0,-891.0,-4000.0,1352.0,4000.0,4000.0
-352.0,23.0,-107.0,-1027.0,-4000.0,563.0,4000.0,4000.0
-201.0,60.0,-160.0,-1329.0,-4000.0,1538.0,4000.0,4000.0
82.0,37.0,-139.0,-1044.0,-4000.0,1134.0,4000.0,4000.0
78.0,34.0,-97.0,-677.0,-4000.0,551.0,2826.0,2422.0
169.0,37.0,2.0,136.0,-4000.0,-41.0,628.0,686.0
27.0,4.0,77.0,433.0,-4000.0,-973.0,-182.0,-236.0
-112.0,-78.0,-43.0,283.0,-3391.0,-2073.0,24.0,-1429.0
-62.0,-132.0,-38.0,242.0,-1077.0,-2774.0,1125.0,-1339.0
-90.0,-198.0,-73.0,73.0,1012.0,-468.0,1580.0,-1120.0
23.0,-240.0,-177.0,179.0,3346.0,281.0,1670.0,25.0
160.0,-188.0,-252.0,425.0,4000.0,-90.0,1475.0,3064.0
215.0,-73.0,-219.0,793.0,4000.0,615.0,1526.0,4000.0
260.0,-15.0,-25.0,994.0,4000.0,-41.0,3347.0,4000.0
155.0,-41.0,108.0,668.0,4000.0,-17.0,4000.0,4000.0
-15.0,-21.0,225.0,410.0,4000.0,-615.0,4000.0,4000.0
-132.0,11.0,370.0,497.0,2060.0,-2351.0,3917.0,4000.0
-113.0,42.0,354.0,335.0,-3883.0,-3014.0,1967.0,4000.0
-113.0,30.0,253.0,366.0,-4000.0,-2909.0,6.0,2445.0
-118.0,37.0,205.0,393.0,-4000.0,-2156.0,-1258.0,211.0
-62.0,48.0,27.0,303.0,-4000.0,-1314.0,-1765.0,-2362.0
-47.0,24.0,-239.0,564.0,-4000.0,-224.0,-2433.0,-4000.0
-41.0,33.0,-375.0,980.0,-4000.0,-29.0,-3455.0,-4000.0
-83.0,7.0,-328.0,1169.0,-4000.0,-2547.0,-4000.0,-4000.0
-96.0,-11.0,-257.0,1045.0,-3391.0,-3438.0,-4000.0,-4000.0
-111.0,14.0,-125.0,1045.0,-2496.0,-1569.0,-4000.0,-4000.0
-147.0,-1.0,-28.0,1175.0,-1797.0,-729.0,-4000.0,-4000.0
-177.0,-28.0,-57.0,1371.0,-642.0,-526.0,-4000.0,-4000.0
-126.0,-12.0,-30.0,1098.0,575.0,-607.0,-4000.0,-4000.0
-114.0,-23.0,-36.0,1294.0,1918.0,788.0,-4000.0,-4000.0
-101.0,-19.0,42.0,2335.0,2760.0,-394.0,-4000.0,-4000.0
-29.0,-16.0,110.0,2592.0,3410.0,-3193.0,-4000.0,-4000.0
-52.0,-39.0,28.0,3259.0,4000.0,-1396.0,-4000.0,-4000.0
-47.0,-41.0,52.0,4000.0,4000.0,766.0,-4000.0,-4000.0
-39.0,-8.0,186.0,2981.0,4000.0,3267.0,-4000.0,-4000.0
-50.0,28.0,132.0,-914.0,4000.0,4000.0,-4000.0,-4000.0
-56.0,30.0,-16.0,-2100.0,4000.0,4000.0,-4000.0,-4000.0
-49.0,34.0,68.0,-3416.0,3982.0,3101.0,-4000.0,-4000.0
18.0,26.0,253.0,-4000.0,4000.0,938.0,-4000.0,-4000.0
24.0,-38.0,293.0,-4000.0,4000.0,-945.0,-4000.0,-3545.0
56.0,-85.0,184.0,-4000.0,4000.0,-306.0,-4000.0,-1823.0
92.0,-53.0,253.0,-4000.0,4000.0,1443.0,-3000.0,236.0
98.0,-37.0,349.0,-2615.0,4000.0,1157.0,-1441.0,1848.0
121.0,-52.0,301.0,-1370.0,4000.0,1521.0,-737.0,2640.0
131.0,11.0,180.0,-1421.0,4000.0,2550.0,-33.0,3871.0
149.0,170.0,19.0,-1238.0,3875.0,1443.0,1011.0,4000.0
118.0,217.0,-26.0,-620.0,3680.0,-1010.0,2761.0,3291.0
160.0,214.0,-133.0,-735.0,3772.0,-2341.0,4000.0,1456.0
261.0,233.0,-243.0,-812.0,4000.0,-3193.0,4000.0,-1050.0
310.0,305.0,-192.0,-260.0,4000.0,-4000.0,4000.0,-3992.0
212.0,386.0,-216.0,158.0,4000.0,-4000.0,4000.0,-4000.0
55.0,239.0,-271.0,-198.0,4000.0,-4000.0,4000.0,-4000.0
81.0,25.0,-263.0,-920.0,4000.0,-4000.0,4000.0,-4000.0
78.0,-21.0,-78.0,-690.0,4000.0,-4000.0,4000.0,-4000.0
63.0,-68.0,207.0,-263.0,4000.0,-3010.0,4000.0,-4000.0
42.0,-83.0,309.0,376.0,4000.0,-507.0,4000.0,-889.0
20.0,-95.0,205.0,890.0,4000.0,1083.0,4000.0,896.0
-50.0,-181.0,-198.0,406.0,4000.0,3007.0,4000.0,1319.0
-242.0,-210.0,-479.0,134.0,692.0,4000.0,4000.0,2572.0
-345.0,-227.0,-226.0,512.0,-108.0,4000.0,3298.0,2966.0
-339.0,-212.0,-94.0,733.0,-1849.0,4000.0,2252.0,3014.0
-323.0,-175.0,-340.0,956.0,-2953.0,4000.0,1801.0,3198.0
-258.0,-125.0,-536.0,1731.0,-3256.0,4000.0,1406.0,3788.0
-237.0,-86.0,-473.0,2022.0,-3995.0,4000.0,75.0,4000.0
-193.0,86.0,-116.0,3111.0,-3921.0,4000.0,-845.0,4000.0
-110.0,217.0,166.0,4000.0,-3327.0,4000.0,-550.0,4000.0
-177.0,115.0,104.0,3623.0,-2370.0,4000.0,962.0,4000.0
-139.0,87.0,28.0,2325.0,-1882.0,3018.0,2777.0,4000.0
-70.0,44.0,3.0,1274.0,-1849.0,-94.0,2843.0,4000.0
-12.0,-49.0,133.0,152.0,-1833.0,-2854.0,2101.0,4000.0
99.0,-139.0,195.0,-761.0,-2688.0,-3376.0,1723.0,4000.0
11.0,-159.0,154.0,-1174.0,-3817.0,-4000.0,1341.0,4000.0
-283.0,-112.0,77.0,-914.0,-3988.0,-4000.0,1033.0,2484.0
-444.0,-90.0,-59.0,-143.0,-4000.0,-4000.0,942.0,-4000.0
-396.0,-155.0,-84.0,1155.0,-4000.0,-4000.0,1004.0,-4000.0
-307.0,-228.0,-154.0,1746.0,-4000.0,-4000.0,1119.0,-4000.0
725.0,-182.0,-31.0,842.0,-4000.0,-4000.0,1098.0,-4000.0
1429.0,-145.0,-36.0,-249.0,-4000.0,-4000.0,1019.0,-4000.0
1059.0,-83.0,-114.0,-682.0,-3327.0,-4000.0,1007.0,-4000.0
395.0,-35.0,-44.0,-1174.0,-2419.0,-4000.0,1070.0,-4000.0
-55.0,-37.0,-122.0,-1821.0,-2122.0,-3193.0,1019.0,-4000.0
-306.0,-93.0,-73.0,-2100.0,-1719.0,510.0,866.0,-4000.0
-1146.0,-105.0,-18.0,-2381.0,-1691.0,3101.0,759.0,-4000.0
-1022.0,-36.0,56.0,-1756.0,-1805.0,2888.0,661.0,-492.0
-323.0,7.0,140.0,122.0,-1685.0,2747.0,608.0,4000.0
181.0,22.0,123.0,1216.0,-2016.0,2840.0,528.0,4000.0
530.0,60.0,125.0,598.0,-2238.0,2641.0,352.0,4000.0
776.0,101.0,125.0,435.0,-2794.0,2512.0,401.0,4000.0
854.0,126.0,64.0,-297.0,-3185.0,1710.0,504.0,4000.0
589.0,136.0,26.0,-1305.0,-3303.0,725.0,486.0,4000.0
306.0,150.0,74.0,-1245.0,-3391.0,-450.0,576.0,4000.0
1.0,179.0,56.0,-1406.0,-3197.0,-1357.0,637.0,4000.0
-147.0,176.0,36.0,-1281.0,-2953.0,-1961.0,472.0,4000.0
-302.0,136.0,1.0,-1222.0,-2252.0,-2558.0,229.0,4000.0
-453.0,117.0,-21.0,-809.0,-1978.0,-2998.0,17.0,4000.0
-540.0,102.0,15.0,-84.0,-1833.0,-3116.0,-40.0,3977.0
-510.0,109.0,-7.0,564.0,-1534.0,-2884.0,-91.0,2624.0
-544.0,160.0,-68.0,882.0,-1572.0,-2558.0,-424.0,308.0
-396.0,101.0,-104.0,1045.0,-1443.0,-2026.0,-796.0,-1078.0
-321.0,-35.0,-80.0,1125.0,-1123.0,-1526.0,-933.0,-2230.0
-404.0,-28.0,-77.0,907.0,-1072.0,-786.0,-982.0,-3060.0
-209.0,26.0,-55.0,965.0,-803.0,166.0,-1042.0,-3669.0
-79.0,46.0,-3.0,850.0,-268.0,1279.0,-1071.0,-4000.0
34.0,38.0,-6.0,1059.0,-547.0,2084.0,-1136.0,-4000.0
64.0,23.0,-30.0,1150.0,-803.0,2306.0,-1317.0,-4000.0
86.0,46.0,29.0,1175.0,-744.0,2485.0,-1570.0,-4000.0
204.0,29.0,20.0,1945.0,-999.0,2580.0,-1702.0,-4000.0
209.0,33.0,-17.0,858.0,-1049.0,2694.0,-1665.0,-4000.0
226.0,41.0,15.0,-612.0,-614.0,2747.0,-1511.0,-4000.0
220.0,16.0,53.0,-38.0,-502.0,2629.0,-1291.0,-3732.0
257.0,-79.0,95.0,236.0,-753.0,2373.0,-1201.0,-2983.0
226.0,-89.0,105.0,-336.0,-1043.0,1929.0,-1258.0,-2295.0
202.0,-8.0,158.0,-1086.0,-1849.0,1452.0,-1291.0,-2049.0
131.0,41.0,98.0,-1551.0,-2181.0,1071.0,-1291.0,-1859.0
-836.0,53.0,21.0,-1935.0,-1587.0,953.0,-1201.0,-1396.0
-2089.0,32.0,44.0,-1922.0,-665.0,752.0,-1128.0,-2412.0
-1141.0,47.0,47.0,-1955.0,-152.0,338.0,-1054.0,-2360.0
116.0,22.0,125.0,-1887.0,-321.0,-135.0,-876.0,-1921.0
976.0,-87.0,165.0,-1412.0,142.0,-550.0,-745.0,-1925.0
2328.0,-82.0,241.0,-594.0,1026.0,-977.0,-666.0,-1175.0
1869.0,-47.0,349.0,1039.0,2019.0,-1316.0,-575.0,-969.0
1572.0,-179.0,321.0,2512.0,3085.0,-1526.0,-447.0,-407.0
1124.0,-171.0,186.0,2009.0,3772.0,-1652.0,-262.0,269.0
521.0,-169.0,-86.0,619.0,4000.0,-1617.0,-113.0,271.0
538.0,-153.0,-192.0,879.0,3744.0,-1376.0,-65.0,1065.0
226.0,-103.0,-205.0,99.0,3837.0,-1115.0,-9.0,1901.0
342.0,-193.0,-242.0,-1480.0,3853.0,-1005.0,45.0,2310.0
-110.0,-181.0,-107.0,-1955.0,3281.0,-1004.0,-4.0,2302.0
-492.0,-167.0,-143.0,-2635.0,3102.0,-965.0,23.0,1403.0
-647.0,-142.0,-230.0,-2381.0,3037.0,-790.0,46.0,817.0
-518.0,-134.0,-114.0,-1663.0,3410.0,-607.0,33.0,243.0
-739.0,-135.0,-8.0,-1223.0,4000.0,-379.0,106.0,22.0
-844.0,-55.0,10.0,-589.0,4000.0,-167.0,161.0,236.0
-428.0,22.0,110.0,-195.0,4000.0,103.0,144.0,804.0
-535.0,73.0,201.0,310.0,4000.0,498.0,189.0,1346.0
-489.0,95.0,190.0,613.0,4000.0,877.0,237.0,203.0
-486.0,132.0,130.0,915.0,4000.0,1343.0,246.0,-708.0
-371.0,157.0,12.0,1254.0,2176.0,1937.0,321.0,-824.0
-219.0,103.0,-29.0,733.0,1059.0,2577.0,413.0,-1578.0
-278.0,26.0,-14.0,391.0,2189.0,2812.0,554.0,-2440.0
-189.0,-19.0,15.0,182.0,3787.0,2824.0,723.0,-3462.0
-12.0,-11.0,-20.0,44.0,4000.0,2877.0,824.0,-3667.0
37.0,-6.0,-56.0,289.0,4000.0,2824.0,897.0,-2556.0
-72.0,27.0,-15.0,140.0,4000.0,2710.0,889.0,-2024.0
-474.0,71.0,-54.0,32.0,4000.0,2047.0,1084.0,-2941.0
-1733.0,78.0,-62.0,295.0,4000.0,1443.0,1548.0,-3178.0
-4000.0,49.0,1.0,583.0,3332.0,1124.0,1602.0,-3462.0
-4000.0,-18.0,-8.0,459.0,2578.0,183.0,1402.0,-3057.0
-672.0,40.0,-66.0,138.0,3020.0,-419.0,1288.0,-2127.0
2483.0,80.0,-67.0,-3.0,3363.0,-607.0,954.0,-2179.0
3884.0,38.0,-70.0,41.0,3725.0,-920.0,-6.0,-2259.0
4000.0,47.0,-75.0,270.0,3072.0,-1062.0,-927.0,-3593.0
3000.0,15.0,-90.0,548.0,2124.0,-621.0,-1104.0,-3773.0
1450.0,25.0,-85.0,828.0,1409.0,994.0,-1332.0,-3753.0
256.0,46.0,-20.0,1145.0,1332.0,2254.0,-1514.0,-4000.0
464.0,69.0,7.0,1436.0,2224.0,2255.0,-1503.0,-4000.0
716.0,75.0,-38.0,1285.0,2889.0,2189.0,-448.0,-4000.0
514.0,19.0,-122.0,1045.0,2772.0,1722.0,818.0,-4000.0
249.0,-27.0,-171.0,1110.0,348.0,876.0,665.0,-3007.0
-288.0,-77.0,-263.0,858.0,-2094.0,136.0,113.0,-1970.0
-396.0,5.0,-254.0,139.0,-3661.0,-550.0,563.0,-818.0
-941.0,45.0,-203.0,-113.0,-4000.0,-737.0,563.0,-221.0
-974.0,47.0,-141.0,-126.0,-4000.0,-526.0,-211.0,-105.0
-1025.0,71.0,-76.0,-285.0,-4000.0,-285.0,707.0,154.0
-775.0,93.0,-89.0,-110.0,-4000.0,70.0,1592.0,81.0
-450.0,183.0,-5.0,-78.0,-4000.0,-67.0,832.0,182.0
-411.0,205.0,10.0,128.0,-4000.0,-1186.0,-39.0,174.0
-388.0,187.0,60.0,335.0,-4000.0,-2063.0,-417.0,71.0
-407.0,178.0,139.0,199.0,-4000.0,-1802.0,-156.0,242.0
-222.0,99.0,241.0,47.0,-4000.0,-550.0,-794.0,361.0
-209.0,20.0,301.0,-263.0,-4000.0,823.0,-1441.0,200.0
-685.0,33.0,230.0,-362.0,-2777.0,961.0,-573.0,-100.0
-1430.0,31.0,179.0,-159.0,-1528.0,208.0,294.0,-151.0
-807.0,19.0,111.0,-372.0,-248.0,-98.0,1735.0,23.0
-185.0,-14.0,10.0,-807.0,402.0,-26.0,2179.0,522.0
212.0,-30.0,-133.0,-1310.0,348.0,119.0,759.0,922.0
1108.0,-24.0,-112.0,-1036.0,-281.0,-147.0,-1183.0,1260.0
1237.0,-30.0,20.0,-155.0,-1552.0,-501.0,-1816.0,1142.0
1095.0,-26.0,6.0,-523.0,-2419.0,-419.0,-1917.0,1187.0
609.0,-42.0,-192.0,-754.0,-2116.0,681.0,-4000.0,1573.0
226.0,-45.0,-373.0,-523.0,-1378.0,1247.0,-4000.0,1598.0
89.0,-34.0,-487.0,-717.0,-641.0,616.0,-3065.0,1892.0
44.0,-35.0,-409.0,-849.0,-523.0,542.0,1841.0,1977.0
-421.0,-30.0,-290.0,-1329.0,-1589.0,-232.0,4000.0,2248.0
-2220.0,-11.0,-252.0,-1305.0,-2611.0,-1570.0,4000.0,2445.0
-2920.0,-40.0,-271.0,-684.0,-2989.0,-1794.0,2440.0,2705.0
-1023.0,-46.0,-82.0,146.0,-2092.0,-381.0,1410.0,3209.0
489.0,-43.0,158.0,569.0,-863.0,1639.0,1392.0,3846.0
1755.0,-26.0,52.0,467.0,58.0,2512.0,1734.0,4000.0
2480.0,34.0,71.0,92.0,415.0,1591.0,2020.0,4000.0
2092.0,39.0,39.0,-355.0,69.0,-6.0,2033.0,4000.0
1376.0,68.0,73.0,-288.0,-18.0,-1550.0,2631.0,4000.0
342.0,71.0,-18.0,-285.0,-160.0,-3128.0,2712.0,3015.0
-20.0,60.0,39.0,-236.0,-70.0,-2854.0,1854.0,1045.0
-62.0,46.0,85.0,-271.0,-38.0,-838.0,1330.0,-1404.0
174.0,41.0,44.0,-80.0,306.0,162.0,1474.0,-3578.0
107.0,64.0,202.0,287.0,883.0,-417.0,1509.0,-4000.0
-71.0,81.0,150.0,504.0,1474.0,-615.0,1019.0,-4000.0
-201.0,103.0,270.0,968.0,2363.0,-570.0,-33.0,-4000.0
-441.0,122.0,419.0,1167.0,3208.0,-1379.0,-394.0,-4000.0
-437.0,111.0,526.0,1360.0,4000.0,-1381.0,366.0,-4000.0
-580.0,86.0,593.0,1444.0,4000.0,-1633.0,693.0,-4000.0
-474.0,103.0,585.0,1184.0,4000.0,-1184.0,-1608.0,-4000.0
-339.0,98.0,476.0,844.0,4000.0,-2.0,-4000.0,-4000.0
-185.0,60.0,231.0,179.0,4000.0,-473.0,-4000.0,-2941.0
-44.0,9.0,-50.0,-365.0,4000.0,-855.0,-4000.0,-953.0
-25.0,-78.0,-358.0,-571.0,4000.0,-1096.0,-4000.0,1020.0
33.0,-59.0,-505.0,-742.0,4000.0,-1047.0,-4000.0,2883.0
-64.0,-28.0,-324.0,-826.0,4000.0,-1005.0,-862.0,4000.0
-89.0,-43.0,-152.0,-745.0,4000.0,-955.0,1214.0,4000.0
-31.0,-91.0,-320.0,-572.0,4000.0,-419.0,853.0,4000.0
-5.0,-121.0,-876.0,-422.0,4000.0,-221.0,734.0,4000.0
-2.0,-83.0,-1362.0,-291.0,4000.0,-122.0,608.0,4000.0
25.0,-40.0,-1101.0,-128.0,4000.0,155.0,529.0,4000.0
19.0,-15.0,-1211.0,51.0,4000.0,216.0,216.0,4000.0
-20.0,8.0,-2186.0,108.0,4000.0,191.0,188.0,4000.0
-53.0,-69.0,-2542.0,102.0,4000.0,734.0,50.0,4000.0
-54.0,-278.0,-792.0,189.0,-1782.0,1118.0,18.0,4000.0
-55.0,-340.0,1497.0,197.0,-4000.0,1058.0,132.0,3848.0
-50.0,-261.0,2474.0,142.0,-4000.0,758.0,73.0,3535.0
-50.0,-239.0,2978.0,139.0,-4000.0,563.0,78.0,3065.0
-59.0,-195.0,2649.0,134.0,-4000.0,902.0,-19.0,2624.0
0.0,-36.0,2017.0,125.0,-4000.0,831.0,-132.0,2184.0
47.0,75.0,1503.0,99.0,-4000.0,254.0,-214.0,1763.0
61.0,28.0,988.0,59.0,-4000.0,49.0,-107.0,1585.0
54.0,71.0,371.0,-10.0,-4000.0,-32.0,-312.0,1411.0
70.0,43.0,-135.0,136.0,-4000.0,-320.0,-216.0,1150.0
30.0,-109.0,415.0,472.0,-4000.0,-135.0,-416.0,1142.0
32.0,-195.0,736.0,548.0,-4000.0,831.0,-538.0,1150.0
5.0,-267.0,695.0,390.0,-4000.0,234.0,-435.0,961.0
-39.0,-275.0,695.0,164.0,-4000.0,-1444.0,-802.0,751.0
17.0,-253.0,512.0,76.0,-4000.0,-1135.0,-817.0,367.0
58.0,73.0,124.0,36.0,-4000.0,-118.0,-538.0,-253.0
125.0,371.0,-210.0,-7.0,-4000.0,1378.0,-210.0,-1191.0
149.0,341.0,-227.0,-48.0,-4000.0,2124.0,-142.0,-2324.0
166.0,359.0,-473.0,-155.0,-4000.0,636.0,-23.0,-3667.0
129.0,286.0,-612.0,-255.0,-4000.0,-838.0,58.0,-4000.0
39.0,150.0,-702.0,-438.0,953.0,-1030.0,345.0,-4000.0
-28.0,51.0,-1427.0,-604.0,4000.0,1214.0,613.0,-4000.0
-48.0,-20.0,-3355.0,-742.0,4000.0,3474.0,451.0,-4000.0
-75.0,30.0,-4000.0,-674.0,4000.0,2971.0,809.0,-4000.0
-81.0,114.0,-4000.0,-506.0,4000.0,3539.0,832.0,-4000.0
-85.0,-86.0,-4000.0,-450.0,4000.0,3655.0,795.0,-4000.0
-109.0,-399.0,-4000.0,-421.0,4000.0,1775.0,954.0,-4000.0
-94.0,-176.0,-4000.0,-450.0,4000.0,1121.0,1007.0,-4000.0
-109.0,305.0,-4000.0,-381.0,4000.0,102.0,1183.0,-4000.0
-85.0,582.0,3251.0,-187.0,4000.0,164.0,1027.0,-4000.0
-58.0,811.0,4000.0,-67.0,4000.0,854.0,1158.0,-4000.0
-9.0,927.0,4000.0,-16.0,4000.0,563.0,1115.0,-1970.0
36.0,338.0,4000.0,77.0,4000.0,-247.0,1064.0,4000.0
49.0,-133.0,4000.0,158.0,1796.0,-1511.0,1129.0,4000.0
43.0,-479.0,4000.0,161.0,-3661.0,-2222.0,1141.0,4000.0
53.0,-960.0,4000.0,134.0,-4000.0,-2510.0,1033.0,4000.0
25.0,-987.0,2730.0,37.0,-4000.0,-1915.0,832.0,4000.0
-39.0,-1025.0,1062.0,42.0,-4000.0,-1265.0,877.0,4000.0
-58.0,-926.0,496.0,158.0,-1398.0,-1135.0,655.0,4000.0
-140.0,-960.0,-56.0,385.0,-751.0,-1168.0,490.0,4000.0
-136.0,-770.0,-271.0,634.0,-4000.0,-1396.0,455.0,4000.0
-78.0,-198.0,-622.0,598.0,-4000.0,-1792.0,472.0,4000.0
-24.0,598.0,-1321.0,552.0,-4000.0,-1526.0,416.0,4000.0
72.0,1187.0,-1732.0,603.0,-4000.0,-1290.0,349.0,4000.0
45.0,774.0,-2123.0,425.0,-4000.0,-1880.0,203.0,4000.0
-10.0,408.0,-2047.0,251.0,-4000.0,-2185.0,54.0,4000.0
12.0,344.0,-2122.0,329.0,-4000.0,-2063.0,-112.0,4000.0
118.0,168.0,-2397.0,177.0,-4000.0,-2268.0,-349.0,3523.0
161.0,85.0,-3683.0,28.0,-4000.0,-2209.0,-403.0,-844.0
102.0,66.0,-4000.0,-163.0,-4000.0,-940.0,-348.0,-4000.0
15.0,-158.0,-4000.0,-423.0,-4000.0,-576.0,-298.0,-4000.0
-24.0,266.0,-4000.0,-506.0,-4000.0,-403.0,-262.0,-4000.0
25.0,1136.0,-4000.0,-650.0,-2484.0,791.0,-44.0,-4000.0
-102.0,817.0,-4000.0,-645.0,1352.0,1710.0,-92.0,-4000.0
-248.0,746.0,-4000.0,-594.0,4000.0,1994.0,-10.0,-4000.0
-169.0,1423.0,-4000.0,-462.0,4000.0,994.0,73.0,-4000.0
-94.0,1374.0,4000.0,-260.0,4000.0,217.0,-39.0,-4000.0
-100.0,923.0,4000.0,-106.0,4000.0,784.0,-90.0,4000.0
-206.0,55.0,4000.0,3.0,4000.0,837.0,-247.0,4000.0
-258.0,395.0,4000.0,62.0,4000.0,510.0,-342.0,4000.0
-228.0,2143.0,4000.0,105.0,4000.0,1287.0,-424.0,4000.0
-193.0,3144.0,4000.0,122.0,4000.0,1919.0,-417.0,4000.0
-176.0,2685.0,4000.0,109.0,4000.0,1466.0,-450.0,4000.0
-162.0,1461.0,4000.0,-4.0,4000.0,498.0,-499.0,4000.0
27.0,-24.0,4000.0,-62.0,4000.0,-95.0,-338.0,4000.0
98.0,-2187.0,4000.0,-113.0,4000.0,-36.0,-200.0,4000.0
34.0,-4000.0,2795.0,-131.0,4000.0,-611.0,-161.0,4000.0
123.0,-4000.0,-4000.0,-83.0,4000.0,-507.0,-117.0,4000.0
143.0,-4000.0,-4000.0,33.0,4000.0,998.0,-52.0,4000.0
154.0,-4000.0,-4000.0,251.0,2190.0,1539.0,-72.0,4000.0
138.0,-4000.0,-4000.0,394.0,-299.0,837.0,-155.0,4000.0
106.0,-3200.0,-4000.0,431.0,-1572.0,490.0,-104.0,4000.0
157.0,-60.0,4000.0,382.0,-2741.0,-269.0,-80.0,4000.0
78.0,1636.0,4000.0,337.0,-3185.0,-2481.0,-52.0,3209.0
43.0,2480.0,4000.0,290.0,-3172.0,-2608.0,74.0,876.0
58.0,2867.0,4000.0,272.0,-2546.0,-1831.0,229.0,-164.0
38.0,2169.0,4000.0,232.0,-1398.0,-1487.0,555.0,-2977.0
39.0,2014.0,3561.0,152.0,-354.0,815.0,759.0,-4000.0
7.0,1713.0,-1016.0,122.0,1388.0,2953.0,749.0,-4000.0
-71.0,2091.0,-4000.0,50.0,3150.0,3398.0,866.0,-4000.0
-174.0,2596.0,-4000.0,-59.0,4000.0,2124.0,962.0,-4000.0
-154.0,2233.0,-4000.0,-194.0,3902.0,1525.0,875.0,-4000.0
-33.0,1331.0,-4000.0,-253.0,2374.0,1033.0,759.0,-4000.0
5.0,476.0,-4000.0,-226.0,615.0,-875.0,570.0,-4000.0
-11.0,-467.0,2130.0,-224.0,-1267.0,-1186.0,529.0,-4000.0
-13.0,-1754.0,4000.0,-148.0,-3380.0,2289.0,563.0,-4000.0
-77.0,-2204.0,4000.0,-40.0,-4000.0,3395.0,338.0,-4000.0
-101.0,-3265.0,4000.0,63.0,-4000.0,1398.0,93.0,-4000.0
-70.0,-4000.0,4000.0,73.0,-4000.0,271.0,-56.0,-4000.0
-6.0,-4000.0,4000.0,2.0,-4000.0,-2928.0,-88.0,-4000.0
47.0,-2566.0,3568.0,-120.0,-4000.0,-4000.0,-126.0,-4000.0
74.0,428.0,-1066.0,-175.0,-4000.0,-4000.0,-255.0,-4000.0
39.0,2013.0,-3567.0,-186.0,-4000.0,-3061.0,-394.0,-4000.0
50.0,2426.0,-4000.0,-159.0,-4000.0,-1461.0,-258.0,-4000.0
74.0,2338.0,-4000.0,-44.0,-4000.0,-2.0,90.0,-4000.0
85.0,1396.0,-4000.0,37.0,-4000.0,2047.0,113.0,-4000.0
85.0,594.0,-4000.0,15.0,-4000.0,4000.0,-98.0,-4000.0
-12.0,156.0,-4000.0,-36.0,-4000.0,4000.0,-332.0,-4000.0
50.0,-141.0,-4000.0,-44.0,-4000.0,3792.0,-493.0,-2069.0
131.0,233.0,-4000.0,92.0,-4000.0,4000.0,-613.0,-111.0
98.0,1425.0,-4000.0,341.0,-4000.0,4000.0,-781.0,1963.0
96.0,2407.0,-4000.0,467.0,-4000.0,1352.0,-946.0,3853.0
98.0,2026.0,-4000.0,603.0,-419.0,-989.0,-1038.0,4000.0
105.0,1764.0,-2953.0,613.0,4000.0,-4000.0,-1201.0,4000.0
101.0,1097.0,-1081.0,583.0,4000.0,-4000.0,-1468.0,4000.0
85.0,128.0,-941.0,509.0,4000.0,-4000.0,-1462.0,4000.0
60.0,-397.0,-3716.0,305.0,4000.0,-4000.0,-1551.0,4000.0
58.0,-869.0,-4000.0,76.0,4000.0,-3258.0,-1587.0,4000.0
17.0,-590.0,-4000.0,-154.0,4000.0,953.0,-1423.0,4000.0
-62.0,1618.0,-4000.0,-260.0,4000.0,2189.0,-1441.0,4000.0
-70.0,4000.0,-4000.0,-352.0,4000.0,3083.0,-1266.0,4000.0
-51.0,4000.0,4000.0,-450.0,4000.0,-1387.0,-1119.0,4000.0
-55.0,3470.0,4000.0,-570.0,4000.0,-4000.0,-1397.0,4000.0
-70.0,3062.0,4000.0,-623.0,4000.0,-923.0,-1571.0,4000.0
-25.0,868.0,4000.0,-558.0,4000.0,-859.0,-897.0,4000.0
-1.0,-1785.0,4000.0,-589.0,4000.0,1352.0,170.0,3996.0
-13.0,-2882.0,4000.0,-660.0,4000.0,2189.0,1223.0,4000.0
-9.0,-3898.0,4000.0,-735.0,4000.0,-1200.0,1931.0,4000.0
9.0,-3676.0,3637.0,-770.0,4000.0,1852.0,2061.0,4000.0
74.0,-3229.0,1939.0,-659.0,4000.0,3657.0,1735.0,4000.0
65.0,-3082.0,2212.0,-491.0,4000.0,199.0,832.0,4000.0
180.0,-2438.0,1310.0,-359.0,4000.0,200.0,464.0,1714.0
260.0,-1729.0,508.0,-411.0,4000.0,1340.0,732.0,-2362.0
13.0,-671.0,-948.0,-615.0,2907.0,221.0,1418.0,-4000.0
-518.0,-183.0,-2578.0,-389.0,1970.0,-436.0,1902.0,-4000.0
-1039.0,92.0,-3601.0,-10.0,1063.0,1026.0,802.0,-4000.0
-777.0,359.0,-3278.0,197.0,328.0,2759.0,-1332.0,-4000.0
-523.0,440.0,-2513.0,506.0,-506.0,4000.0,-2536.0,-4000.0
-163.0,323.0,-2399.0,590.0,-1398.0,4000.0,-2009.0,-4000.0
660.0,227.0,-2916.0,419.0,-2250.0,1904.0,-741.0,-4000.0
888.0,229.0,-2692.0,238.0,-2757.0,1474.0,210.0,-4000.0
954.0,133.0,-2513.0,194.0,-2953.0,1573.0,234.0,-4000.0
929.0,193.0,-2513.0,272.0,-3378.0,-1106.0,-223.0,-4000.0
778.0,251.0,-2123.0,442.0,-3726.0,-2574.0,-290.0,-4000.0
471.0,378.0,-2580.0,524.0,-3661.0,-1270.0,-350.0,-4000.0
150.0,502.0,-2652.0,484.0,-3539.0,-881.0,-630.0,-4000.0
96.0,592.0,-1878.0,516.0,-3507.0,-403.0,658.0,-3527.0
-218.0,569.0,-1264.0,498.0,-3521.0,-541.0,2843.0,-1526.0
-518.0,485.0,-1036.0,467.0,-2912.0,-383.0,3364.0,597.0
-610.0,451.0,-753.0,496.0,-2482.0,184.0,1769.0,3393.0
-741.0,343.0,-536.0,518.0,-2174.0,1539.0,225.0,4000.0
-979.0,290.0,-320.0,381.0,-1915.0,2438.0,-244.0,4000.0
-757.0,227.0,-277.0,16.0,-2741.0,1136.0,-39.0,4000.0
-331.0,205.0,-230.0,-306.0,-3391.0,876.0,-1796.0,4000.0
-654.0,81.0,-250.0,-560.0,-3586.0,1821.0,-2994.0,4000.0
-562.0,56.0,-801.0,-717.0,-3689.0,2031.0,-743.0,4000.0
33.0,197.0,-1415.0,-576.0,-4000.0,-159.0,2125.0,4000.0
406.0,213.0,-833.0,-346.0,-4000.0,-2932.0,4000.0,4000.0
428.0,118.0,311.0,-336.0,-4000.0,-4000.0,4000.0,4000.0
62.0,-24.0,931.0,-462.0,-4000.0,-4000.0,4000.0,4000.0
-258.0,-53.0,1888.0,-619.0,-4000.0,-1359.0,3669.0,4000.0
-1091.0,-92.0,2224.0,-680.0,-4000.0,-485.0,2166.0,4000.0
-1218.0,-72.0,2094.0,-630.0,-4000.0,-2685.0,1825.0,4000.0
303.0,-30.0,1416.0,-544.0,-4000.0,-3299.0,529.0,3996.0
1226.0,-65.0,585.0,-370.0,-4000.0,-1396.0,876.0,3832.0
1161.0,-98.0,-450.0,-48.0,-4000.0,-791.0,1534.0,2937.0
1000.0,-209.0,-1419.0,127.0,-4000.0,-384.0,349.0,2283.0
608.0,-338.0,101.0,163.0,-4000.0,1937.0,-1690.0,2572.0
129.0,-521.0,1509.0,185.0,-4000.0,2385.0,-4000.0,3079.0
-443.0,-501.0,2343.0,164.0,-4000.0,-255.0,-4000.0,2835.0
-1096.0,-347.0,2913.0,215.0,-4000.0,-1951.0,-4000.0,2419.0
-2098.0,-496.0,2343.0,320.0,-4000.0,-493.0,-4000.0,1728.0
-2773.0,-403.0,1692.0,425.0,4000.0,516.0,-4000.0,1065.0
-2643.0,-137.0,564.0,422.0,4000.0,1604.0,-2675.0,319.0
-1604.0,-27.0,-56.0,498.0,4000.0,1917.0,1223.0,-132.0
-183.0,74.0,-315.0,655.0,4000.0,2577.0,877.0,-191.0
2002.0,98.0,-250.0,842.0,1462.0,2580.0,720.0,31.0
3004.0,116.0,-102.0,915.0,-4000.0,2230.0,746.0,483.0
2715.0,-50.0,-60.0,714.0,-4000.0,1601.0,-224.0,1437.0
2350.0,-266.0,50.0,364.0,-4000.0,-1623.0,-642.0,2689.0
1116.0,-318.0,-661.0,-148.0,-41.0,-3583.0,-4000.0,3275.0
1065.0,-293.0,-1805.0,-523.0,4000.0,-4000.0,-4000.0,4000.0
1181.0,-232.0,-2373.0,-784.0,4000.0,-2528.0,-3660.0,4000.0
798.0,-261.0,-2370.0,-877.0,4000.0,-14.0,-1005.0,4000.0
183.0,-301.0,-2072.0,-675.0,562.0,-134.0,1509.0,4000.0
187.0,-310.0,-752.0,-332.0,1417.0,-169.0,2061.0,4000.0
361.0,-273.0,-1093.0,-233.0,-1711.0,-1050.0,2647.0,4000.0
1.0,-135.0,-3691.0,-296.0,3904.0,-2185.0,1919.0,4000.0
-78.0,268.0,-4000.0,-154.0,-1515.0,-4000.0,707.0,3326.0
-508.0,640.0,-3958.0,-92.0,-4000.0,-2510.0,-2044.0,2498.0
-440.0,796.0,2094.0,-30.0,-4000.0,1287.0,-2288.0,2819.0
-69.0,900.0,3715.0,107.0,-4000.0,3723.0,824.0,2640.0
78.0,791.0,2160.0,430.0,-4000.0,4000.0,3086.0,1586.0
177.0,737.0,198.0,829.0,-4000.0,1538.0,1996.0,-262.0
-15.0,489.0,-3136.0,949.0,-4000.0,265.0,510.0,-2629.0
-571.0,68.0,-3604.0,903.0,-4000.0,725.0,-1128.0,-4000.0
-1019.0,-375.0,1888.0,909.0,-2664.0,-133.0,-3236.0,-4000.0
-1105.0,-1117.0,4000.0,740.0,99.0,941.0,-3497.0,-4000.0
-836.0,-1671.0,4000.0,496.0,3399.0,3835.0,-2740.0,-4000.0
-739.0,-1090.0,4000.0,402.0,4000.0,3231.0,-1765.0,-4000.0
-966.0,-314.0,2730.0,121.0,4000.0,1669.0,-546.0,-4000.0
-881.0,-196.0,2783.0,-401.0,4000.0,268.0,4000.0,-4000.0
-831.0,7.0,2094.0,-1077.0,4000.0,542.0,4000.0,-4000.0
-515.0,-7.0,847.0,-1370.0,4000.0,1163.0,4000.0,-4000.0
-354.0,62.0,722.0,-1506.0,4000.0,-2788.0,4000.0,-4000.0
-844.0,118.0,-733.0,-1427.0,4000.0,-2353.0,4000.0,-4000.0
-1430.0,121.0,-1407.0,-1036.0,4000.0,115.0,4000.0,-4000.0
-901.0,110.0,-2652.0,-807.0,4000.0,-1172.0,4000.0,-4000.0
430.0,99.0,-2253.0,-604.0,4000.0,-2061.0,4000.0,-4000.0
1065.0,392.0,-2175.0,-684.0,4000.0,-58.0,4000.0,-4000.0
1766.0,424.0,-2279.0,-336.0,215.0,249.0,4000.0,-4000.0
1820.0,328.0,-1655.0,48.0,-4000.0,-1421.0,4000.0,-2283.0
1677.0,157.0,-1166.0,39.0,-4000.0,-436.0,4000.0,4000.0
1429.0,50.0,74.0,345.0,-4000.0,506.0,88.0,4000.0
929.0,-59.0,-155.0,634.0,-4000.0,268.0,-4000.0,4000.0
308.0,-288.0,-2057.0,754.0,-4000.0,-725.0,-4000.0,4000.0
-850.0,-328.0,-3368.0,891.0,-1685.0,-1461.0,-4000.0,4000.0
-2483.0,-259.0,-1455.0,1037.0,4000.0,-2928.0,-4000.0,4000.0
-2643.0,-14.0,988.0,906.0,4000.0,-2431.0,-4000.0,4000.0
-654.0,318.0,3316.0,548.0,4000.0,831.0,-4000.0,4000.0
310.0,411.0,3971.0,272.0,4000.0,-875.0,-4000.0,4000.0
1161.0,446.0,2924.0,144.0,4000.0,-940.0,-4000.0,4000.0
1689.0,420.0,1770.0,199.0,4000.0,2710.0,-4000.0,4000.0
1690.0,294.0,328.0,209.0,4000.0,2812.0,-4000.0,4000.0
1124.0,355.0,-580.0,110.0,4000.0,619.0,-4000.0,4000.0
-260.0,469.0,-3355.0,-105.0,3982.0,-226.0,-4000.0,4000.0
-474.0,485.0,-4000.0,-488.0,403.0,28.0,-3377.0,-2411.0
-175.0,400.0,-1823.0,-994.0,-2147.0,-1162.0,-1765.0,-4000.0
18.0,229.0,701.0,-1265.0,-4000.0,-2403.0,-162.0,-4000.0
316.0,173.0,772.0,-978.0,-4000.0,-4000.0,563.0,-4000.0
322.0,300.0,459.0,-594.0,-4000.0,-4000.0,772.0,-4000.0
5.0,382.0,-214.0,-251.0,-4000.0,-2803.0,538.0,-4000.0
-112.0,142.0,-580.0,-38.0,-4000.0,-835.0,-247.0,-4000.0
-234.0,-127.0,-739.0,132.0,-4000.0,-194.0,-1979.0,-4000.0
-457.0,135.0,-682.0,244.0,-4000.0,1083.0,-4000.0,-4000.0
-453.0,254.0,-552.0,257.0,-4000.0,2775.0,-4000.0,-4000.0
-428.0,-58.0,-633.0,317.0,-4000.0,3329.0,-4000.0,-4000.0
-301.0,355.0,-383.0,362.0,-4000.0,3526.0,-4000.0,-4000.0
-327.0,598.0,-243.0,583.0,-4000.0,3465.0,-1997.0,-4000.0
-392.0,319.0,-225.0,668.0,-4000.0,2426.0,-876.0,-4000.0
-339.0,-80.0,-610.0,663.0,-4000.0,1982.0,-269.0,-4000.0
-307.0,-659.0,-651.0,784.0,-4000.0,2189.0,-252.0,-3991.0
-195.0,-1220.0,-61.0,994.0,-4000.0,1917.0,-791.0,-1469.0
-136.0,-1935.0,606.0,1249.0,-4000.0,2094.0,-849.0,955.0
-42.0,-1546.0,1041.0,1340.0,-4000.0,2373.0,-550.0,3096.0
21.0,-477.0,1062.0,1059.0,-4000.0,2824.0,-314.0,4000.0
40.0,-193.0,895.0,272.0,-4000.0,2694.0,-489.0,4000.0
37.0,-318.0,611.0,-669.0,-4000.0,2060.0,-290.0,4000.0
31.0,-272.0,215.0,-1565.0,-4000.0,2515.0,386.0,4000.0
72.0,-215.0,95.0,-1922.0,-4000.0,2124.0,283.0,4000.0
53.0,-160.0,-42.0,-2261.0,-4000.0,1409.0,296.0,4000.0
71.0,-66.0,-123.0,-2080.0,-3836.0,485.0,376.0,4000.0
70.0,-4.0,96.0,-1500.0,1669.0,-344.0,374.0,4000.0
60.0,79.0,1.0,-1470.0,4000.0,-334.0,486.0,4000.0
65.0,58.0,195.0,-1157.0,4000.0,-1103.0,832.0,4000.0
69.0,103.0,85.0,-1484.0,4000.0,-2105.0,1027.0,4000.0
61.0,149.0,-236.0,-1174.0,4000.0,-3298.0,1027.0,4000.0
27.0,180.0,12.0,-495.0,4000.0,-4000.0,869.0,4000.0
4.0,117.0,190.0,-238.0,4000.0,-4000.0,665.0,4000.0
-20.0,133.0,165.0,-30.0,4000.0,-3919.0,995.0,4000.0
13.0,217.0,49.0,232.0,4000.0,-3010.0,1395.0,4000.0
31.0,200.0,164.0,1021.0,4000.0,-2156.0,1657.0,4000.0
42.0,217.0,46.0,1430.0,4000.0,-965.0,1902.0,4000.0
63.0,160.0,-44.0,1619.0,4000.0,-247.0,2125.0,4000.0
86.0,44.0,118.0,1696.0,4000.0,-86.0,2190.0,3079.0
63.0,-57.0,77.0,1563.0,4000.0,-253.0,2309.0,2025.0
42.0,70.0,-9.0,1241.0,4000.0,-960.0,2291.0,2835.0
86.0,222.0,-99.0,1216.0,4000.0,-2185.0,1967.0,4000.0
107.0,209.0,147.0,1436.0,4000.0,-3518.0,1695.0,4000.0
96.0,160.0,385.0,1220.0,4000.0,-4000.0,1658.0,4000.0
34.0,87.0,309.0,668.0,4000.0,-4000.0,1548.0,4000.0
-44.0,-26.0,390.0,335.0,3085.0,-4000.0,1602.0,4000.0
-201.0,-214.0,459.0,337.0,1853.0,-4000.0,1734.0,4000.0
-352.0,-261.0,373.0,182.0,-356.0,-4000.0,1670.0,4000.0
-261.0,-3.0,211.0,-289.0,-4000.0,-4000.0,1540.0,4000.0
-85.0,189.0,-5.0,-594.0,-4000.0,-4000.0,942.0,2575.0
14.0,208.0,-337.0,-552.0,-4000.0,-2998.0,524.0,853.0
62.0,304.0,-536.0,-724.0,-4000.0,-1461.0,628.0,4000.0
147.0,294.0,-743.0,-1036.0,-4000.0,146.0,782.0,4000.0
204.0,212.0,-717.0,-822.0,-4000.0,1898.0,858.0,4000.0
151.0,69.0,-210.0,-442.0,-4000.0,2905.0,1019.0,3196.0
110.0,25.0,-152.0,-150.0,-1463.0,3148.0,1280.0,196.0
20.0,113.0,-138.0,48.0,4000.0,3345.0,1125.0,-3923.0
-62.0,-33.0,-36.0,-8.0,4000.0,3539.0,1019.0,-4000.0
-107.0,-205.0,11.0,-83.0,4000.0,3556.0,1011.0,-4000.0
-146.0,-199.0,88.0,156.0,4000.0,3851.0,954.0,-4000.0
-138.0,-141.0,75.0,232.0,4000.0,4000.0,1010.0,-4000.0
-92.0,-24.0,169.0,118.0,4000.0,4000.0,962.0,-4000.0
2.0,81.0,134.0,175.0,4000.0,4000.0,603.0,-4000.0
-15.0,40.0,114.0,174.0,4000.0,4000.0,338.0,-4000.0
-43.0,49.0,74.0,185.0,4000.0,4000.0,402.0,-4000.0
48.0,215.0,72.0,207.0,4000.0,4000.0,386.0,-4000.0
78.0,256.0,82.0,243.0,4000.0,4000.0,613.0,-4000.0
39.0,198.0,-20.0,142.0,4000.0,4000.0,628.0,-4000.0
8.0,321.0,-61.0,-14.0,4000.0,2953.0,669.0,-4000.0
14.0,477.0,-153.0,-200.0,4000.0,1604.0,506.0,-4000.0
-43.0,400.0,-271.0,-462.0,4000.0,246.0,-33.0,-4000.0
-45.0,355.0,-328.0,-724.0,4000.0,-844.0,-613.0,-4000.0
16.0,391.0,-291.0,-784.0,4000.0,-1070.0,-1227.0,-4000.0
9.0,441.0,-271.0,-659.0,4000.0,64.0,-1572.0,-389.0
14.0,448.0,-251.0,-540.0,4000.0,1657.0,-2159.0,1649.0
13.0,355.0,-224.0,-458.0,4000.0,2189.0,-2842.0,2354.0
50.0,355.0,-206.0,-719.0,3008.0,1397.0,-3212.0,3910.0
53.0,200.0,39.0,-999.0,-193.0,961.0,-3407.0,4000.0
21.0,-94.0,430.0,-1370.0,-4000.0,2382.0,-3574.0,4000.0
-26.0,-437.0,402.0,-1589.0,-4000.0,3914.0,-3916.0,2819.0
-85.0,-804.0,-50.0,-1353.0,-4000.0,4000.0,-4000.0,2051.0
-89.0,-816.0,-283.0,-1135.0,-4000.0,4000.0,-4000.0,2054.0
-54.0,-804.0,-515.0,-1036.0,-4000.0,4000.0,-4000.0,328.0
9.0,-895.0,-841.0,-833.0,-4000.0,3409.0,-4000.0,94.0
16.0,-684.0,-551.0,-143.0,-4000.0,3148.0,-4000.0,467.0
-45.0,-164.0,0.0,711.0,-4000.0,2580.0,-4000.0,1912.0
-45.0,149.0,354.0,1379.0,-4000.0,2577.0,-4000.0,4000.0
-40.0,318.0,309.0,1804.0,-4000.0,2840.0,-4000.0,4000.0
-23.0,725.0,128.0,1981.0,-4000.0,3593.0,-4000.0,4000.0
0.0,713.0,-69.0,1563.0,-4000.0,4000.0,-4000.0,3731.0
-41.0,587.0,-727.0,603.0,-4000.0,4000.0,-4000.0,1663.0
-41.0,587.0,-847.0,634.0,-4000.0,3529.0,-4000.0,-282.0
-20.0,501.0,-385.0,1086.0,-4000.0,1929.0,-4000.0,79.0
-43.0,443.0,-27.0,773.0,-4000.0,-550.0,-3171.0,2377.0
-86.0,224.0,394.0,577.0,-3014.0,-3181.0,-2560.0,3014.0
-37.0,90.0,663.0,971.0,1710.0,-4000.0,-1527.0,2550.0
17.0,87.0,533.0,598.0,4000.0,-4000.0,-255.0,3910.0
-3.0,44.0,541.0,-167.0,4000.0,-3863.0,897.0,4000.0
-86.0,-295.0,541.0,-200.0,4000.0,-3323.0,1984.0,4000.0
-150.0,-604.0,241.0,-391.0,4000.0,-1200.0,4000.0,4000.0
-243.0,-753.0,56.0,-426.0,4000.0,-1851.0,4000.0,4000.0
-371.0,-895.0,42.0,-155.0,4000.0,-3571.0,4000.0,4000.0
-331.0,-959.0,85.0,60.0,4000.0,-4000.0,4000.0,4000.0
-260.0,-696.0,-48.0,323.0,4000.0,-4000.0,4000.0,1859.0
-201.0,-280.0,125.0,472.0,4000.0,-4000.0,4000.0,1533.0
-67.0,-258.0,360.0,551.0,4000.0,-4000.0,4000.0,2159.0
-5.0,-362.0,337.0,459.0,4000.0,-4000.0,4000.0,1281.0
89.0,-466.0,369.0,308.0,4000.0,-4000.0,4000.0,406.0
146.0,-488.0,719.0,305.0,1539.0,-4000.0,4000.0,-537.0
176.0,-537.0,1843.0,60.0,-354.0,-4000.0,4000.0,-1558.0
371.0,-287.0,2410.0,-81.0,-1766.0,-4000.0,4000.0,-2100.0
509.0,63.0,2859.0,15.0,-812.0,-4000.0,4000.0,-3708.0
570.0,160.0,2612.0,-429.0,402.0,-4000.0,4000.0,-4000.0
603.0,286.0,364.0,-965.0,335.0,-4000.0,4000.0,-4000.0
580.0,304.0,-1229.0,-1245.0,1604.0,-4000.0,3347.0,-4000.0
408.0,162.0,-2276.0,-776.0,837.0,-4000.0,1469.0,-4000.0
184.0,14.0,-2306.0,39.0,-4000.0,-2998.0,45.0,-4000.0
65.0,74.0,-1813.0,1086.0,-4000.0,-816.0,-1123.0,-2179.0
45.0,374.0,-1678.0,1495.0,-4000.0,1189.0,-1730.0,-649.0
70.0,1181.0,-1085.0,711.0,-4000.0,3333.0,-2433.0,-759.0
-14.0,1738.0,-515.0,564.0,-4000.0,4000.0,-3050.0,-1469.0
-123.0,1843.0,-523.0,903.0,-4000.0,4000.0,-3407.0,-1526.0
-164.0,1961.0,-1557.0,1163.0,-4000.0,4000.0,-3907.0,-1697.0
-232.0,1396.0,-1557.0,956.0,-4000.0,4000.0,-4000.0,-1738.0
-215.0,666.0,-906.0,994.0,-4000.0,4000.0,-4000.0,-1245.0
-151.0,-111.0,-719.0,303.0,-4000.0,4000.0,-4000.0,-918.0
-13.0,-987.0,-338.0,-140.0,-846.0,4000.0,-4000.0,-909.0
-23.0,-1757.0,-198.0,347.0,4000.0,4000.0,-4000.0,-781.0
-88.0,-1834.0,-91.0,785.0,4000.0,4000.0,-4000.0,-431.0
-13.0,-1132.0,133.0,2152.0,4000.0,4000.0,-4000.0,352.0
24.0,-440.0,546.0,1954.0,4000.0,4000.0,-4000.0,634.0
-3.0,395.0,996.0,-422.0,4000.0,4000.0,-4000.0,651.0
-85.0,912.0,967.0,-2082.0,4000.0,4000.0,-4000.0,932.0
-147.0,992.0,891.0,-1982.0,4000.0,4000.0,-4000.0,1077.0
-218.0,998.0,439.0,-2413.0,4000.0,4000.0,-3928.0,947.0
-242.0,566.0,-54.0,-3348.0,2819.0,4000.0,-3662.0,811.0
-193.0,-239.0,68.0,-2130.0,-149.0,3018.0,-3585.0,853.0
-126.0,-1132.0,99.0,366.0,-2029.0,433.0,-3455.0,727.0
9.0,-1702.0,147.0,1931.0,-1915.0,-2091.0,-3212.0,572.0
38.0,-2482.0,195.0,1021.0,-918.0,-3685.0,-3041.0,700.0
40.0,-3011.0,263.0,-737.0,737.0,-4000.0,-2805.0,786.0
-14.0,-3123.0,467.0,-2129.0,3541.0,-4000.0,-2506.0,548.0
-39.0,-2530.0,523.0,-3403.0,4000.0,-4000.0,-2270.0,98.0
-24.0,-1605.0,642.0,-3790.0,4000.0,-4000.0,-2223.0,-327.0
-110.0,-1481.0,1233.0,-3764.0,4000.0,-4000.0,-2138.0,-370.0
-43.0,-887.0,1794.0,-3612.0,3729.0,-4000.0,-1991.0,-151.0
-88.0,-535.0,1491.0,-2814.0,1787.0,-4000.0,-1832.0,-280.0
-193.0,-176.0,1217.0,-1697.0,-1259.0,-4000.0,-1671.0,-594.0
-218.0,518.0,1574.0,-920.0,-4000.0,-4000.0,-1600.0,-775.0
-301.0,803.0,1127.0,-429.0,-4000.0,-4000.0,-1358.0,-794.0
-445.0,817.0,-24.0,-25.0,-4000.0,-3684.0,-1011.0,-744.0
-432.0,791.0,-717.0,467.0,-1963.0,-3583.0,-676.0,-779.0
60.0,788.0,-875.0,952.0,1474.0,-3990.0,-555.0,-779.0
315.0,725.0,1112.0,1241.0,4000.0,-4000.0,-489.0,-692.0
306.0,959.0,3756.0,1293.0,4000.0,-4000.0,-294.0,-671.0
321.0,1167.0,2213.0,1150.0,4000.0,-4000.0,-124.0,-508.0
296.0,1453.0,-2679.0,1125.0,4000.0,-4000.0,129.0,-317.0
318.0,1368.0,-4000.0,1090.0,3790.0,-3852.0,311.0,-256.0
260.0,1193.0,-4000.0,1096.0,2112.0,-3387.0,191.0,-169.0
250.0,1193.0,-4000.0,980.0,-1129.0,-3182.0,14.0,-90.0
204.0,1012.0,-3095.0,949.0,-3539.0,-2856.0,13.0,84.0
192.0,989.0,-1992.0,972.0,-4000.0,-2341.0,274.0,290.0
56.0,876.0,-841.0,864.0,-4000.0,-2016.0,989.0,434.0
-482.0,998.0,598.0,895.0,-4000.0,-2079.0,1337.0,536.0
-549.0,1006.0,2333.0,849.0,-4000.0,-2366.0,1141.0,564.0
39.0,746.0,2483.0,836.0,-4000.0,-2462.0,1059.0,483.0
253.0,441.0,850.0,850.0,-4000.0,-2400.0,1076.0,556.0
306.0,143.0,-363.0,923.0,-4000.0,-1912.0,1183.0,882.0
174.0,-71.0,-186.0,1045.0,-4000.0,-1452.0,1158.0,1663.0
-29.0,-196.0,-36.0,1150.0,-4000.0,-1330.0,1098.0,2563.0
-185.0,212.0,466.0,1241.0,-4000.0,-1647.0,1084.0,2248.0
-376.0,1057.0,621.0,1302.0,-4000.0,-1634.0,1118.0,1793.0
-209.0,1645.0,433.0,1357.0,-4000.0,-1233.0,1119.0,1502.0
-75.0,1558.0,1481.0,1232.0,-4000.0,-911.0,962.0,981.0
34.0,1201.0,3316.0,772.0,-4000.0,-620.0,881.0,817.0
50.0,579.0,3575.0,191.0,-4000.0,-928.0,824.0,564.0
13.0,-281.0,169.0,-232.0,-4000.0,-844.0,858.0,352.0
62.0,-1126.0,-1589.0,-458.0,-4000.0,172.0,816.0,122.0
78.0,-1718.0,-1785.0,-594.0,641.0,793.0,665.0,117.0
118.0,-1720.0,-1602.0,-768.0,4000.0,813.0,642.0,21.0
60.0,-1546.0,271.0,-870.0,4000.0,636.0,543.0,-315.0
1.0,-1268.0,2352.0,-939.0,4000.0,184.0,181.0,-435.0
-99.0,-991.0,2548.0,-959.0,4000.0,-36.0,126.0,-685.0
-125.0,-761.0,-1362.0,-947.0,4000.0,-474.0,480.0,-1005.0
72.0,-562.0,-3225.0,-1036.0,4000.0,-917.0,548.0,-1396.0
101.0,-570.0,-2277.0,-1086.0,4000.0,-988.0,445.0,-1826.0
157.0,-455.0,-645.0,-1030.0,4000.0,-1119.0,352.0,-2035.0
220.0,-436.0,401.0,-913.0,4000.0,-1062.0,283.0,-2071.0
202.0,-330.0,-1085.0,-784.0,4000.0,-459.0,196.0,-1672.0
163.0,-222.0,-607.0,-700.0,4000.0,338.0,127.0,-862.0
12.0,-287.0,-9.0,-609.0,4000.0,-481.0,232.0,-854.0
-88.0,-134.0,533.0,-515.0,4000.0,-2431.0,341.0,-1671.0
-392.0,131.0,2027.0,-391.0,4000.0,-3061.0,228.0,-2050.0
-632.0,399.0,923.0,-282.0,4000.0,-1290.0,56.0,-2128.0
-439.0,424.0,-869.0,-200.0,4000.0,210.0,179.0,-2698.0
-36.0,483.0,-622.0,-155.0,4000.0,506.0,368.0,-3178.0
253.0,640.0,-106.0,-87.0,4000.0,660.0,309.0,-2324.0
257.0,615.0,-89.0,-40.0,4000.0,636.0,201.0,-1191.0
109.0,521.0,449.0,14.0,4000.0,766.0,102.0,-1404.0
40.0,374.0,415.0,106.0,4000.0,473.0,-149.0,-809.0
85.0,392.0,107.0,122.0,4000.0,602.0,-139.0,89.0
88.0,469.0,80.0,181.0,4000.0,693.0,-68.0,-170.0
-111.0,477.0,9.0,199.0,4000.0,909.0,-146.0,-210.0
-323.0,502.0,150.0,258.0,4000.0,1051.0,-198.0,-380.0
-234.0,411.0,1174.0,362.0,4000.0,1059.0,-159.0,-88.0
-162.0,227.0,1368.0,402.0,4000.0,1248.0,-98.0,-33.0
-9.0,36.0,-125.0,413.0,4000.0,1222.0,-127.0,-161.0
169.0,-47.0,-1003.0,386.0,4000.0,1333.0,-60.0,-161.0
225.0,-110.0,-867.0,298.0,3916.0,1227.0,-84.0,-214.0
222.0,-275.0,-604.0,207.0,1992.0,1405.0,-219.0,159.0
82.0,-379.0,-827.0,248.0,208.0,1604.0,-475.0,455.0
-6.0,-444.0,-1348.0,262.0,-1573.0,1994.0,-657.0,935.0
-143.0,-484.0,-772.0,207.0,-3898.0,2112.0,-394.0,652.0
-112.0,-318.0,728.0,120.0,-4000.0,1799.0,181.0,569.0
18.0,-133.0,1053.0,69.0,-4000.0,1852.0,362.0,1924.0
86.0,-21.0,663.0,30.0,-4000.0,1852.0,242.0,3275.0
18.0,18.0,112.0,-29.0,-4000.0,1852.0,355.0,2225.0
-32.0,29.0,-1.0,-39.0,-4000.0,1527.0,481.0,671.0
-30.0,79.0,309.0,1.0,-4000.0,823.0,934.0,1012.0
-79.0,91.0,250.0,122.0,-4000.0,327.0,740.0,214.0
-92.0,65.0,410.0,199.0,-4000.0,-26.0,10.0,-2088.0
-241.0,17.0,-44.0,175.0,-4000.0,-358.0,-92.0,-4000.0
-372.0,-4.0,-507.0,112.0,-4000.0,-620.0,-211.0,-4000.0
-470.0,-12.0,-489.0,-15.0,-4000.0,-334.0,-189.0,-3923.0
-266.0,-30.0,-416.0,-130.0,-4000.0,308.0,-353.0,-3708.0
-11.0,-49.0,154.0,-133.0,-4000.0,329.0,-455.0,-3178.0
102.0,-23.0,233.0,-206.0,-4000.0,-42.0,-441.0,-3113.0
239.0,5.0,-11.0,-202.0,-4000.0,-297.0,-664.0,-948.0
204.0,5.0,-243.0,-82.0,-4000.0,-668.0,-729.0,-17.0
169.0,4.0,-580.0,-79.0,-4000.0,-1010.0,-802.0,53.0
85.0,9.0,-72.0,-56.0,-4000.0,-1317.0,-729.0,541.0
-45.0,-20.0,663.0,-50.0,-4000.0,-1831.0,-676.0,580.0
-41.0,-55.0,1053.0,4.0,-4000.0,-1912.0,-620.0,422.0
9.0,-8.0,1379.0,91.0,-4000.0,-1118.0,-664.0,-26.0
9.0,-3.0,1574.0,84.0,-4000.0,246.0,-731.0,218.0
-45.0,-42.0,2159.0,108.0,-4000.0,2159.0,-672.0,-389.0
-71.0,-44.0,2600.0,181.0,-4000.0,4000.0,-575.0,174.0
-292.0,-53.0,781.0,197.0,-4000.0,4000.0,-412.0,812.0
-431.0,-21.0,-867.0,238.0,-4000.0,4000.0,15.0,686.0
-93.0,13.0,-1149.0,301.0,-4000.0,4000.0,598.0,1411.0
144.0,58.0,-2039.0,329.0,-4000.0,4000.0,472.0,1623.0
238.0,34.0,-1665.0,443.0,-4000.0,4000.0,286.0,1633.0
300.0,26.0,-580.0,580.0,-4000.0,4000.0,702.0,1989.0
168.0,20.0,72.0,564.0,-4000.0,4000.0,942.0,1960.0
119.0,1.0,76.0,499.0,-4000.0,4000.0,876.0,1660.0
82.0,20.0,-1683.0,377.0,-4000.0,4000.0,376.0,1728.0
58.0,37.0,-2253.0,337.0,-1463.0,4000.0,-417.0,1698.0
-83.0,124.0,-761.0,488.0,843.0,3594.0,-1051.0,1272.0
-205.0,223.0,88.0,494.0,2630.0,2940.0,-1011.0,874.0
-63.0,261.0,663.0,489.0,2955.0,1824.0,78.0,1221.0
-93.0,158.0,-47.0,425.0,1604.0,-234.0,1223.0,1374.0
-112.0,-12.0,-2981.0,386.0,-364.0,-3057.0,1280.0,1346.0
-26.0,-170.0,-4000.0,425.0,-3197.0,-4000.0,-131.0,870.0
-15.0,-310.0,-1797.0,356.0,-4000.0,-4000.0,-917.0,369.0
-55.0,-405.0,2616.0,272.0,-4000.0,-4000.0,-201.0,382.0
-79.0,-338.0,3170.0,207.0,-4000.0,-4000.0,341.0,304.0
11.0,-163.0,3072.0,115.0,-4000.0,-4000.0,791.0,682.0
20.0,-129.0,728.0,-56.0,-4000.0,-4000.0,734.0,569.0
13.0,-111.0,-763.0,-126.0,-4000.0,-4000.0,-275.0,536.0
56.0,-139.0,272.0,-234.0,-3391.0,-4000.0,-1507.0,49.0
144.0,-219.0,728.0,-290.0,-1229.0,-4000.0,-1897.0,-427.0
143.0,-210.0,728.0,-226.0,1097.0,-4000.0,-1162.0,-149.0
74.0,-204.0,1033.0,-260.0,2955.0,-4000.0,-456.0,-29.0
42.0,-114.0,1087.0,-372.0,4000.0,-4000.0,-72.0,304.0
7.0,-27.0,385.0,-458.0,4000.0,-4000.0,380.0,209.0
20.0,99.0,-365.0,-383.0,4000.0,-4000.0,571.0,-69.0
-52.0,176.0,-17.0,-348.0,4000.0,-4000.0,468.0,136.0
-142.0,53.0,272.0,-446.0,4000.0,-4000.0,349.0,239.0
6.0,-55.0,243.0,-466.0,4000.0,-4000.0,124.0,-360.0
6.0,-99.0,410.0,-422.0,4000.0,-4000.0,-133.0,-390.0
74.0,-72.0,-25.0,-423.0,4000.0,-4000.0,-338.0,-166.0
573.0,30.0,18.0,-384.0,4000.0,-4000.0,-69.0,-750.0
651.0,39.0,-161.0,-318.0,4000.0,-3258.0,254.0,-692.0
573.0,57.0,-324.0,-282.0,4000.0,-1782.0,474.0,-604.0
293.0,11.0,-64.0,-255.0,4000.0,-862.0,857.0,-928.0
12.0,-34.0,95.0,-194.0,4000.0,-72.0,1270.0,-862.0
-34.0,-15.0,190.0,-98.0,4000.0,276.0,1711.0,-614.0
-82.0,-5.0,89.0,-48.0,4000.0,571.0,1532.0,106.0
-29.0,55.0,52.0,-38.0,4000.0,843.0,962.0,142.0
-155.0,64.0,-87.0,-128.0,4000.0,1344.0,816.0,409.0
-238.0,128.0,-52.0,-153.0,4000.0,1639.0,920.0,1065.0
-493.0,140.0,-11.0,-161.0,4000.0,2447.0,543.0,531.0
-664.0,72.0,-56.0,-239.0,4000.0,3409.0,-108.0,804.0
-457.0,29.0,-115.0,-224.0,4000.0,4000.0,-412.0,1111.0
-234.0,8.0,-145.0,-206.0,4000.0,4000.0,-774.0,686.0
-244.0,16.0,-181.0,-234.0,4000.0,4000.0,-1199.0,547.0
-197.0,17.0,-320.0,-197.0,4000.0,4000.0,-1128.0,393.0
-380.0,60.0,-276.0,-169.0,4000.0,4000.0,-707.0,456.0
-319.0,46.0,-282.0,-149.0,4000.0,4000.0,-340.0,522.0
66.0,30.0,-252.0,-148.0,4000.0,4000.0,349.0,369.0
1.0,30.0,-215.0,-223.0,3916.0,4000.0,461.0,259.0
8.0,50.0,-200.0,-366.0,3074.0,4000.0,-188.0,100.0
-112.0,86.0,-86.0,-498.0,1824.0,4000.0,-530.0,7.0
-108.0,78.0,-13.0,-636.0,528.0,4000.0,-867.0,11.0
48.0,52.0,-70.0,-749.0,-1255.0,4000.0,-507.0,62.0
45.0,21.0,-36.0,-586.0,-3083.0,4000.0,-90.0,213.0
-266.0,-1.0,223.0,-332.0,-4000.0,4000.0,73.0,96.0
-710.0,17.0,290.0,-211.0,-4000.0,4000.0,390.0,-52.0
-473.0,44.0,122.0,-132.0,-4000.0,3604.0,302.0,-124.0
-396.0,23.0,-230.0,-130.0,-4000.0,2824.0,1.0,-189.0
-76.0,46.0,-302.0,-132.0,-4000.0,2060.0,-316.0,-301.0
716.0,55.0,-95.0,-187.0,-4000.0,1148.0,-298.0,-665.0
789.0,30.0,-95.0,-157.0,-4000.0,336.0,-108.0,-758.0
495.0,48.0,113.0,-44.0,-4000.0,-458.0,309.0,-345.0
406.0,56.0,259.0,15.0,-4000.0,-1357.0,124.0,-215.0
994.0,73.0,201.0,141.0,-4000.0,-1434.0,-731.0,-292.0
1441.0,57.0,128.0,207.0,-4000.0,-1452.0,-967.0,-62.0
1429.0,8.0,-36.0,373.0,-4000.0,-1387.0,-459.0,196.0
920.0,7.0,-91.0,589.0,-4000.0,-1056.0,962.0,634.0
257.0,-10.0,-132.0,793.0,-4000.0,-779.0,1931.0,947.0
-255.0,-38.0,-84.0,915.0,-2093.0,-630.0,1467.0,955.0
-608.0,-56.0,-64.0,929.0,4000.0,-419.0,1194.0,525.0
-824.0,-102.0,-169.0,980.0,4000.0,-326.0,1630.0,462.0
-979.0,-66.0,-73.0,915.0,4000.0,-293.0,948.0,600.0
-883.0,-13.0,-32.0,836.0,4000.0,136.0,170.0,590.0
-889.0,-31.0,2.0,720.0,4000.0,384.0,455.0,914.0
-775.0,-37.0,104.0,643.0,4000.0,628.0,555.0,896.0
-771.0,44.0,92.0,728.0,4000.0,831.0,481.0,1004.0
-645.0,117.0,219.0,849.0,4000.0,1456.0,216.0,882.0
-510.0,102.0,128.0,988.0,4000.0,2243.0,-31.0,360.0
-441.0,67.0,-415.0,1053.0,4000.0,2840.0,-314.0,-275.0
-99.0,77.0,-617.0,1037.0,4000.0,3083.0,315.0,-1194.0
127.0,80.0,-14.0,1045.0,4000.0,3072.0,954.0,-1540.0
255.0,-102.0,402.0,974.0,4000.0,3678.0,700.0,-889.0
446.0,-68.0,476.0,879.0,4000.0,4000.0,-152.0,-1697.0
725.0,81.0,459.0,711.0,4000.0,4000.0,-1382.0,-2876.0
725.0,-56.0,72.0,538.0,4000.0,4000.0,-146.0,-2651.0
640.0,-175.0,-60.0,533.0,4000.0,4000.0,2514.0,-1644.0
503.0,-244.0,76.0,548.0,4000.0,4000.0,3917.0,-81.0
228.0,-338.0,160.0,487.0,4000.0,4000.0,2552.0,98.0
11.0,-328.0,107.0,402.0,4000.0,4000.0,90.0,-317.0
20.0,-188.0,-101.0,352.0,4000.0,2840.0,-1054.0,-649.0
-9.0,-89.0,-79.0,341.0,2630.0,926.0,-449.0,-628.0
-120.0,-125.0,18.0,238.0,-4000.0,-1005.0,1164.0,-305.0
11.0,-86.0,-14.0,6.0,-4000.0,-2250.0,1274.0,-49.0
141.0,-18.0,44.0,-253.0,-4000.0,-1847.0,-145.0,-102.0
147.0,-88.0,-216.0,-364.0,-4000.0,307.0,-37.0,-223.0
-41.0,-136.0,-768.0,-393.0,-4000.0,1547.0,1801.0,-69.0
-174.0,-118.0,-585.0,-458.0,-4000.0,2375.0,1939.0,-427.0
-140.0,-122.0,105.0,-515.0,-4000.0,3202.0,1919.0,-391.0
-132.0,-163.0,268.0,-594.0,-4000.0,3125.0,1453.0,-602.0
-225.0,-293.0,356.0,-625.0,-4000.0,2877.0,172.0,-1274.0
-343.0,-281.0,258.0,-700.0,-4000.0,2629.0,-238.0,-875.0
-415.0,-171.0,-313.0,-833.0,-4000.0,2418.0,-548.0,60.0
-453.0,-106.0,-1016.0,-914.0,-4000.0,1969.0,-1332.0,-1316.0
-302.0,134.0,-1007.0,-946.0,-4000.0,1969.0,-2951.0,-1808.0
-47.0,355.0,-839.0,-967.0,-4000.0,2319.0,-4000.0,-748.0
131.0,395.0,-804.0,-1044.0,-4000.0,2490.0,-4000.0,-1615.0
199.0,327.0,315.0,-979.0,-4000.0,2175.0,-3746.0,-2024.0
232.0,156.0,858.0,-874.0,-4000.0,1666.0,-3507.0,-2346.0
277.0,-144.0,1119.0,-810.0,-4000.0,1071.0,-4000.0,-2192.0
74.0,-548.0,1237.0,-652.0,-4000.0,196.0,-4000.0,-1103.0
-90.0,-598.0,996.0,-411.0,-3604.0,-582.0,-4000.0,-540.0
106.0,-278.0,801.0,-316.0,-1729.0,-1422.0,-1950.0,-30.0
260.0,-137.0,183.0,-498.0,390.0,-2091.0,124.0,340.0
212.0,-101.0,28.0,-636.0,2321.0,-2063.0,1528.0,1000.0
166.0,-9.0,-47.0,-742.0,4000.0,-2268.0,2579.0,1728.0
143.0,93.0,-297.0,-1146.0,4000.0,-3429.0,3854.0,2544.0
197.0,183.0,-971.0,-1646.0,4000.0,-4000.0,4000.0,2807.0
200.0,156.0,-1171.0,-1774.0,4000.0,-4000.0,4000.0,2807.0
138.0,135.0,-753.0,-1545.0,4000.0,-4000.0,4000.0,3080.0
56.0,72.0,-542.0,-1329.0,4000.0,-4000.0,2321.0,2948.0
65.0,67.0,-159.0,-1460.0,4000.0,-4000.0,-90.0,2807.0
60.0,56.0,3.0,-1435.0,4000.0,-4000.0,-1051.0,2572.0
-87.0,-4.0,-92.0,-1201.0,4000.0,-4000.0,-93.0,2302.0
-225.0,-42.0,-178.0,-1036.0,4000.0,-4000.0,759.0,1986.0
-396.0,-72.0,-609.0,-877.0,4000.0,-4000.0,1019.0,1077.0
-424.0,-4.0,-841.0,-782.0,4000.0,-4000.0,1843.0,473.0
-388.0,81.0,-32.0,-760.0,4000.0,-4000.0,2647.0,869.0
-219.0,149.0,589.0,-719.0,4000.0,-4000.0,2452.0,556.0
6.0,157.0,937.0,-764.0,4000.0,-3659.0,1463.0,-583.0
74.0,213.0,1127.0,-772.0,4000.0,-3506.0,-179.0,-794.0
139.0,227.0,771.0,-704.0,4000.0,-3246.0,-658.0,-753.0
121.0,156.0,476.0,-645.0,4000.0,-2738.0,-723.0,-856.0
122.0,89.0,-39.0,-560.0,4000.0,-1850.0,-855.0,-908.0
-18.0,92.0,-799.0,-448.0,4000.0,-1070.0,-651.0,-801.0
-113.0,143.0,-943.0,-279.0,4000.0,-318.0,-465.0,-353.0
-116.0,143.0,-50.0,-185.0,4000.0,81.0,-341.0,778.0
-152.0,262.0,517.0,-140.0,4000.0,303.0,-771.0,1846.0
-39.0,316.0,480.0,-15.0,4000.0,525.0,-1031.0,1456.0
-18.0,281.0,21.0,74.0,4000.0,788.0,-1136.0,1780.0
-36.0,290.0,83.0,158.0,4000.0,1279.0,-876.0,2118.0
-22.0,241.0,467.0,269.0,3085.0,1539.0,-1206.0,1651.0
12.0,187.0,284.0,328.0,298.0,2175.0,-1749.0,1221.0
42.0,91.0,419.0,370.0,-2139.0,2682.0,-1332.0,817.0
16.0,-28.0,211.0,442.0,-4000.0,2888.0,-971.0,803.0
35.0,-48.0,203.0,554.0,-4000.0,2824.0,-1243.0,1012.0
68.0,-57.0,57.0,603.0,-4000.0,2694.0,-2156.0,1374.0
100.0,-63.0,-247.0,720.0,-4000.0,2840.0,-2408.0,2042.0
77.0,-26.0,-328.0,882.0,-4000.0,3202.0,-2009.0,3275.0
122.0,-40.0,-283.0,980.0,-4000.0,4000.0,-1588.0,3458.0
131.0,-91.0,-64.0,1175.0,-4000.0,4000.0,-1238.0,2094.0
90.0,-121.0,-169.0,1234.0,-4000.0,4000.0,-784.0,514.0
172.0,-66.0,-183.0,1144.0,-4000.0,3005.0,-530.0,-1083.0
177.0,-6.0,-259.0,1144.0,-4000.0,1533.0,-994.0,-2615.0
114.0,13.0,-95.0,1145.0,-4000.0,506.0,-1030.0,-3333.0
30.0,34.0,-44.0,1080.0,-4000.0,-125.0,-846.0,-3397.0
-99.0,-96.0,-145.0,929.0,-4000.0,-1115.0,-924.0,-2747.0
-157.0,-207.0,-56.0,832.0,-4000.0,-2219.0,-1011.0,-1723.0
-181.0,-209.0,-18.0,817.0,-4000.0,-4000.0,-1054.0,-605.0
-196.0,-281.0,38.0,733.0,-4000.0,-4000.0,-902.0,387.0
-201.0,-340.0,-12.0,613.0,-4000.0,-4000.0,-882.0,434.0
-174.0,-215.0,-53.0,538.0,-4000.0,-51.0,-709.0,580.0
-83.0,62.0,-114.0,590.0,-4000.0,3231.0,-196.0,569.0
-132.0,347.0,-132.0,533.0,-4000.0,4000.0,576.0,395.0
-157.0,637.0,-169.0,442.0,-4000.0,3786.0,551.0,497.0
-138.0,595.0,-22.0,506.0,-4000.0,3851.0,749.0,334.0
-107.0,556.0,65.0,504.0,-4000.0,3660.0,1474.0,190.0
33.0,607.0,-13.0,533.0,-4000.0,2629.0,2114.0,213.0
133.0,160.0,77.0,598.0,-4000.0,1929.0,2442.0,334.0
139.0,-462.0,92.0,569.0,-3767.0,1006.0,2125.0,-114.0
121.0,-855.0,65.0,533.0,-3107.0,142.0,2161.0,-86.0
144.0,-1132.0,175.0,616.0,-2406.0,-737.0,1333.0,308.0
118.0,-1376.0,306.0,694.0,-1359.0,-1915.0,759.0,444.0
93.0,-1402.0,318.0,711.0,-667.0,-2433.0,1214.0,241.0
63.0,-1204.0,278.0,740.0,-328.0,-3193.0,1489.0,-452.0
16.0,-810.0,230.0,695.0,-364.0,-4000.0,1345.0,-385.0
36.0,-427.0,264.0,621.0,-681.0,-4000.0,1249.0,438.0
58.0,62.0,190.0,442.0,-798.0,-3535.0,1019.0,890.0
111.0,615.0,-106.0,158.0,-921.0,-2815.0,608.0,1272.0
144.0,1103.0,-255.0,-54.0,-1098.0,-2416.0,889.0,1476.0
92.0,1315.0,-409.0,-299.0,-1520.0,-1135.0,858.0,254.0
43.0,1042.0,-328.0,-486.0,-2063.0,256.0,-101.0,-671.0
9.0,1063.0,-29.0,-365.0,-2550.0,673.0,-737.0,-1114.0
-1.0,774.0,-61.0,-381.0,-2924.0,1018.0,-1249.0,-1330.0
-2.0,512.0,32.0,-462.0,-2931.0,1124.0,-1291.0,-2193.0
-32.0,489.0,93.0,-366.0,-2318.0,651.0,702.0,-2035.0
-71.0,374.0,80.0,-336.0,-1666.0,-344.0,3086.0,-334.0
-91.0,512.0,95.0,-327.0,-730.0,-1070.0,3216.0,-14.0
-68.0,508.0,-54.0,-387.0,332.0,-406.0,2114.0,1241.0
-88.0,522.0,-26.0,-414.0,849.0,764.0,1064.0,1050.0
-51.0,464.0,-99.0,-433.0,1398.0,1266.0,282.0,961.0
3.0,456.0,-97.0,-472.0,1992.0,2110.0,-83.0,1532.0
24.0,442.0,-63.0,-421.0,2485.0,3202.0,-298.0,261.0
72.0,353.0,-72.0,-370.0,2745.0,4000.0,-532.0,550.0
98.0,254.0,33.0,-359.0,3150.0,4000.0,-717.0,103.0
51.0,182.0,53.0,-356.0,3428.0,4000.0,-797.0,-875.0
2.0,156.0,-5.0,-328.0,3332.0,4000.0,-797.0,-1324.0
5.0,89.0,-114.0,-332.0,3623.0,4000.0,-704.0,-2244.0
17.0,160.0,-305.0,-288.0,3875.0,4000.0,-676.0,-3007.0
38.0,94.0,-538.0,-173.0,3707.0,3873.0,-620.0,-2100.0
36.0,-5.0,-175.0,93.0,3269.0,3528.0,-587.0,-1658.0
41.0,-42.0,125.0,337.0,2630.0,3280.0,-533.0,-2670.0
23.0,-102.0,27.0,465.0,1865.0,2771.0,-485.0,-2682.0
4.0,-143.0,-381.0,598.0,654.0,2288.0,-546.0,-3462.0
-24.0,-155.0,-768.0,622.0,-593.0,1474.0,-519.0,-3333.0
-42.0,-206.0,-52.0,598.0,-1637.0,1071.0,-434.0,-2824.0
-17.0,-232.0,290.0,524.0,-2859.0,752.0,-331.0,-2320.0
-31.0,-231.0,728.0,374.0,-3920.0,571.0,-306.0,-2016.0
-50.0,-261.0,1053.0,336.0,-4000.0,795.0,-346.0,-2472.0
-46.0,-253.0,801.0,280.0,-4000.0,576.0,-342.0,-2193.0
-63.0,-261.0,719.0,199.0,-4000.0,441.0,-273.0,-1339.0
-102.0,-261.0,316.0,155.0,-4000.0,394.0,-251.0,-791.0
-117.0,-295.0,125.0,67.0,-4000.0,141.0,-298.0,-1064.0
-116.0,-310.0,-172.0,39.0,-4000.0,70.0,-298.0,-824.0
-132.0,-307.0,-255.0,31.0,-4000.0,35.0,-373.0,-52.0
-132.0,-336.0,-486.0,50.0,-4000.0,43.0,-613.0,-71.0
-116.0,-354.0,-890.0,115.0,-4000.0,-22.0,-876.0,-443.0
-78.0,-347.0,-585.0,116.0,-4000.0,-47.0,-902.0,16.0
-67.0,-314.0,-1.0,68.0,-4000.0,-139.0,-802.0,19.0
-82.0,-244.0,267.0,10.0,-4000.0,-293.0,-642.0,98.0
-64.0,-183.0,295.0,27.0,-4000.0,-398.0,-475.0,300.0
-33.0,-177.0,189.0,39.0,-4000.0,-546.0,-455.0,563.0
-24.0,-155.0,63.0,-24.0,-4000.0,-576.0,-515.0,788.0
-38.0,-133.0,31.0,-100.0,-4000.0,-591.0,-501.0,341.0
-40.0,-113.0,-39.0,-220.0,-4000.0,-521.0,-14.0,426.0
-39.0,-94.0,12.0,-285.0,-4000.0,-403.0,456.0,482.0
-12.0,-92.0,60.0,-308.0,-4000.0,-267.0,532.0,590.0
-31.0,-157.0,31.0,-507.0,-4000.0,-112.0,563.0,515.0
-84.0,-215.0,-129.0,-574.0,-3604.0,110.0,464.0,196.0
-82.0,-244.0,-198.0,-580.0,-3066.0,445.0,326.0,503.0
-42.0,-193.0,-167.0,-659.0,-2729.0,343.0,324.0,808.0
-15.0,-227.0,-285.0,-749.0,-2513.0,-161.0,203.0,794.0
-26.0,-310.0,-479.0,-914.0,-2472.0,-423.0,66.0,735.0
0.0,-158.0,-552.0,-768.0,-2406.0,-591.0,-5.0,314.0
8.0,1.0,-465.0,-474.0,-2159.0,-737.0,-119.0,-130.0
-15.0,-18.0,-373.0,-279.0,-1953.0,-862.0,-294.0,-183.0
-31.0,-141.0,-165.0,-198.0,-1635.0,-1431.0,-390.0,-125.0
-65.0,-110.0,-49.0,-214.0,-596.0,-2054.0,-448.0,831.0
-28.0,-50.0,43.0,-73.0,1344.0,-1961.0,-375.0,1780.0
-5.0,-39.0,150.0,63.0,3410.0,-1915.0,-284.0,1633.0
39.0,8.0,154.0,91.0,4000.0,-1995.0,-247.0,2040.0
49.0,-74.0,195.0,178.0,4000.0,-1005.0,-117.0,2371.0
42.0,-151.0,215.0,181.0,4000.0,-498.0,-48.0,1156.0
63.0,-208.0,306.0,138.0,4000.0,-680.0,126.0,324.0
52.0,-146.0,252.0,154.0,4000.0,-721.0,429.0,302.0
112.0,-26.0,170.0,106.0,4000.0,-982.0,812.0,1142.0
110.0,190.0,166.0,47.0,4000.0,-1115.0,1092.0,1182.0
55.0,355.0,172.0,-41.0,4000.0,-1205.0,1332.0,601.0
39.0,359.0,199.0,-88.0,4000.0,-1184.0,1534.0,1182.0
47.0,394.0,107.0,-12.0,4000.0,-1257.0,1540.0,1307.0
6.0,253.0,-75.0,178.0,4000.0,-1251.0,1640.0,1176.0
-15.0,167.0,-637.0,229.0,4000.0,-1233.0,1602.0,11.0
-12.0,135.0,-1081.0,264.0,4000.0,-1227.0,1788.0,-1083.0
-74.0,95.0,-564.0,337.0,4000.0,-1112.0,2297.0,-1194.0
-40.0,109.0,-133.0,308.0,4000.0,-1075.0,2492.0,-472.0
-2.0,140.0,378.0,329.0,4000.0,-1053.0,2429.0,-33.0
25.0,294.0,1192.0,308.0,4000.0,-1042.0,2321.0,739.0
7.0,395.0,1184.0,234.0,4000.0,-945.0,2125.0,629.0
-19.0,347.0,1119.0,72.0,4000.0,-875.0,1605.0,-643.0
-12.0,28.0,703.0,32.0,4000.0,-810.0,1072.0,-153.0
-18.0,-210.0,272.0,144.0,4000.0,-855.0,693.0,1780.0
-8.0,-261.0,152.0,190.0,4000.0,-946.0,464.0,4000.0
-36.0,-347.0,-96.0,188.0,4000.0,-945.0,152.0,4000.0
-41.0,-162.0,-78.0,146.0,4000.0,-977.0,-469.0,3716.0
-27.0,99.0,-114.0,109.0,4000.0,-997.0,-1006.0,2353.0
-9.0,94.0,-97.0,142.0,4000.0,-1042.0,-1258.0,479.0
-15.0,-53.0,-234.0,124.0,4000.0,-1103.0,-1527.0,40.0
-29.0,-136.0,-338.0,81.0,4000.0,-1112.0,-1914.0,-449.0
-2.0,-127.0,-310.0,55.0,4000.0,-1032.0,-2317.0,-280.0
3.0,-100.0,-163.0,1.0,4000.0,-966.0,-2752.0,-109.0
-85.0,-149.0,-129.0,-86.0,4000.0,-940.0,-3082.0,-643.0
-112.0,-35.0,-188.0,-214.0,4000.0,-796.0,-3520.0,-1196.0
-81.0,26.0,-213.0,-301.0,4000.0,-685.0,-3725.0,-1339.0
-64.0,16.0,-281.0,-418.0,4000.0,-861.0,-3445.0,-785.0
-24.0,212.0,-241.0,-523.0,4000.0,-1031.0,-3261.0,-431.0
-18.0,319.0,-315.0,-550.0,4000.0,-1248.0,-2976.0,-166.0
11.0,338.0,-358.0,-497.0,3682.0,-1506.0,-2549.0,-156.0
27.0,83.0,-252.0,-332.0,2907.0,-1607.0,-2453.0,-101.0
1.0,-149.0,-98.0,-290.0,2124.0,-1617.0,-2512.0,1533.0
-40.0,-127.0,-32.0,-357.0,1401.0,-1518.0,-2453.0,2284.0
-44.0,-60.0,-51.0,-417.0,725.0,-939.0,-1918.0,1325.0
-34.0,117.0,-118.0,-487.0,7.0,-255.0,-1462.0,1392.0
-16.0,102.0,-96.0,-610.0,-686.0,283.0,-1048.0,1374.0
25.0,51.0,-50.0,-841.0,-1609.0,628.0,-420.0,629.0
50.0,21.0,-46.0,-810.0,-2757.0,628.0,-271.0,-105.0
52.0,55.0,-20.0,-751.0,-4000.0,1069.0,-8.0,5.0
17.0,188.0,-38.0,-724.0,-4000.0,1405.0,142.0,225.0
13.0,75.0,9.0,-511.0,-4000.0,1799.0,127.0,-286.0
21.0,-59.0,19.0,-520.0,-4000.0,2047.0,532.0,-618.0
31.0,-98.0,6.0,-505.0,-4000.0,1994.0,838.0,-644.0
31.0,-42.0,57.0,-453.0,-4000.0,2112.0,1280.0,-488.0
27.0,-88.0,70.0,-484.0,-4000.0,2254.0,1593.0,-37.0
15.0,-114.0,50.0,-401.0,-4000.0,2424.0,1856.0,384.0
17.0,-60.0,42.0,-390.0,-4000.0,2568.0,2047.0,474.0
35.0,-65.0,57.0,-357.0,-4000.0,2645.0,2226.0,410.0
2.0,-118.0,72.0,-336.0,-4000.0,2490.0,2361.0,274.0
-16.0,-231.0,72.0,-308.0,-4000.0,2373.0,2161.0,296.0
-29.0,-249.0,93.0,-238.0,-4000.0,2124.0,1866.0,78.0
-61.0,-222.0,107.0,-174.0,-4000.0,1929.0,1528.0,-435.0
-17.0,5.0,114.0,-87.0,-4000.0,1799.0,1444.0,-605.0
17.0,103.0,110.0,11.0,-4000.0,1734.0,1444.0,-928.0
-19.0,140.0,74.0,122.0,-4000.0,1799.0,1575.0,-1921.0
14.0,222.0,89.0,264.0,-4000.0,2034.0,1548.0,-2601.0
48.0,325.0,93.0,482.0,-4000.0,2164.0,1280.0,-2941.0
33.0,418.0,142.0,754.0,-4000.0,2060.0,1010.0,-3452.0
8.0,396.0,177.0,728.0,-4000.0,2124.0,942.0,-3935.0
1.0,406.0,112.0,352.0,-4000.0,1824.0,1052.0,-4000.0
21.0,392.0,112.0,116.0,-4000.0,1474.0,930.0,-4000.0
43.0,406.0,64.0,-149.0,-4000.0,1018.0,486.0,-3773.0
34.0,317.0,-57.0,-155.0,-4000.0,205.0,-182.0,-3113.0
12.0,191.0,10.0,101.0,-4000.0,30.0,-273.0,-2256.0
-27.0,126.0,92.0,238.0,-4000.0,-232.0,61.0,-1078.0
-54.0,114.0,100.0,400.0,-4000.0,-503.0,555.0,-6.0
-41.0,111.0,109.0,451.0,-4000.0,-62.0,1125.0,781.0
-34.0,160.0,35.0,533.0,-4000.0,-297.0,809.0,1704.0
-24.0,150.0,69.0,634.0,-3844.0,-703.0,29.0,2510.0
2.0,132.0,59.0,613.0,-2389.0,-737.0,-226.0,2739.0
30.0,187.0,23.0,622.0,-987.0,-651.0,-298.0,1704.0
89.0,188.0,60.0,699.0,-81.0,-642.0,-317.0,-23.0
139.0,109.0,29.0,720.0,1970.0,-731.0,-456.0,-1380.0
-1.0,-72.0,34.0,754.0,2907.0,-555.0,-855.0,-1985.0
-93.0,-209.0,-4.0,819.0,3102.0,-258.0,-505.0,-2051.0
-98.0,-297.0,19.0,894.0,4000.0,46.0,767.0,-1839.0
-172.0,-419.0,-41.0,763.0,4000.0,-108.0,1602.0,-1494.0
-160.0,-435.0,-179.0,538.0,4000.0,250.0,1399.0,-1180.0
-104.0,-351.0,-192.0,406.0,4000.0,283.0,930.0,-1271.0
-43.0,-240.0,-229.0,211.0,4000.0,-113.0,427.0,-1497.0
5.0,-200.0,-204.0,4.0,4000.0,-580.0,87.0,-1325.0
14.0,-258.0,-270.0,-296.0,4000.0,-2245.0,99.0,-889.0
-24.0,-277.0,-290.0,-384.0,4000.0,-2221.0,78.0,-234.0
-49.0,-275.0,-139.0,-388.0,4000.0,-1682.0,246.0,710.0
-41.0,-273.0,-48.0,-411.0,3722.0,-1623.0,514.0,1411.0
-96.0,-280.0,163.0,-190.0,3428.0,53.0,432.0,1501.0
-90.0,-213.0,271.0,-66.0,2772.0,596.0,307.0,1045.0
-18.0,-145.0,231.0,-90.0,2776.0,883.0,-156.0,302.0
74.0,-80.0,195.0,-49.0,2360.0,725.0,-546.0,-415.0
121.0,-52.0,23.0,-5.0,338.0,145.0,-817.0,-1083.0
107.0,-114.0,-99.0,-61.0,-2044.0,241.0,-946.0,-1495.0
96.0,-49.0,-205.0,-97.0,-3539.0,-403.0,-1030.0,-1185.0
82.0,-42.0,-87.0,85.0,-3982.0,-581.0,-1397.0,-37.0
67.0,-134.0,84.0,222.0,-4000.0,-862.0,-1291.0,1818.0
-14.0,-121.0,-115.0,26.0,-4000.0,-932.0,-1533.0,3523.0
-36.0,-24.0,-87.0,50.0,-3689.0,-816.0,-1618.0,4000.0
6.0,77.0,60.0,199.0,-1963.0,-570.0,-745.0,4000.0
-37.0,24.0,-69.0,-34.0,-1055.0,-250.0,-73.0,4000.0
-35.0,31.0,-153.0,-246.0,-942.0,-247.0,881.0,4000.0
15.0,85.0,-145.0,-160.0,-1137.0,-186.0,2440.0,4000.0
-54.0,96.0,-33.0,8.0,-848.0,-283.0,2244.0,4000.0
-48.0,156.0,-38.0,92.0,-1228.0,-285.0,759.0,3144.0
-41.0,150.0,-41.0,229.0,-4000.0,-521.0,-363.0,981.0
-40.0,155.0,20.0,229.0,-4000.0,-737.0,-994.0,-779.0
17.0,179.0,43.0,223.0,-4000.0,-867.0,-603.0,-1469.0
-4.0,172.0,29.0,287.0,-4000.0,-945.0,-701.0,-1774.0
-41.0,160.0,4.0,251.0,-4000.0,-845.0,-244.0,-2069.0
-64.0,149.0,24.0,240.0,-4000.0,-702.0,339.0,-1672.0
-35.0,134.0,24.0,252.0,-4000.0,-535.0,163.0,-1180.0
-46.0,84.0,23.0,195.0,-4000.0,-448.0,-52.0,-909.0
-89.0,59.0,-6.0,154.0,-4000.0,-414.0,-685.0,-423.0
0.0,176.0,28.0,45.0,-4000.0,-323.0,-257.0,128.0
76.0,186.0,28.0,-44.0,-4000.0,-129.0,550.0,450.0
82.0,72.0,-11.0,92.0,-4000.0,-15.0,-620.0,190.0
104.0,26.0,-31.0,22.0,-4000.0,5.0,-1962.0,-147.0
86.0,-82.0,-28.0,-35.0,-4000.0,21.0,-2985.0,-345.0
-3.0,-299.0,-26.0,-93.0,-2649.0,-35.0,-3236.0,-627.0
-73.0,-533.0,-28.0,-424.0,-1333.0,-94.0,-774.0,-581.0
-25.0,-454.0,-38.0,-559.0,58.0,80.0,1019.0,-492.0
17.0,-307.0,-83.0,-749.0,672.0,336.0,451.0,-671.0
-6.0,-193.0,-64.0,-1044.0,1006.0,498.0,1353.0,-537.0
-37.0,-34.0,-63.0,-1166.0,2101.0,401.0,2843.0,-193.0
-27.0,39.0,-60.0,-1240.0,3725.0,172.0,3038.0,-297.0
-25.0,197.0,-40.0,-1211.0,4000.0,141.0,2449.0,-353.0
-89.0,282.0,-29.0,-1077.0,4000.0,-555.0,1528.0,-431.0
-127.0,328.0,28.0,-846.0,4000.0,-1263.0,1971.0,-521.0
-99.0,371.0,85.0,-498.0,4000.0,-1487.0,2161.0,-380.0
-82.0,334.0,114.0,-336.0,4000.0,-1487.0,2321.0,-490.0
-85.0,160.0,96.0,-317.0,4000.0,-1162.0,2570.0,-555.0
-40.0,18.0,48.0,-293.0,4000.0,-358.0,2442.0,-799.0
-27.0,-41.0,17.0,-285.0,4000.0,1604.0,2309.0,-993.0
2.0,-143.0,50.0,-246.0,4000.0,795.0,2020.0,-954.0
-161.0,-206.0,6.0,-187.0,4000.0,-863.0,2061.0,-1037.0
-836.0,-162.0,-188.0,-255.0,4000.0,-526.0,2058.0,-953.0
-1153.0,-55.0,-203.0,-279.0,4000.0,-581.0,2061.0,-971.0
-318.0,-29.0,-63.0,-143.0,4000.0,403.0,1801.0,-824.0
363.0,67.0,14.0,-73.0,4000.0,673.0,1723.0,-529.0
777.0,91.0,39.0,-62.0,4000.0,1157.0,1443.0,-431.0
1059.0,34.0,39.0,-41.0,4000.0,1547.0,561.0,-594.0
827.0,68.0,48.0,-39.0,4000.0,1340.0,-208.0,-584.0
631.0,41.0,-9.0,-38.0,4000.0,1592.0,-717.0,-716.0
308.0,28.0,-101.0,-19.0,4000.0,1443.0,-855.0,-1234.0
163.0,33.0,-76.0,99.0,4000.0,1579.0,-1076.0,-1859.0
52.0,35.0,5.0,465.0,3476.0,1344.0,-1606.0,-2617.0
-24.0,29.0,-14.0,484.0,1247.0,933.0,-2056.0,-3268.0
-40.0,0.0,17.0,233.0,-1064.0,254.0,-2286.0,-3694.0
-40.0,4.0,23.0,141.0,-3197.0,-501.0,-2571.0,-3904.0
24.0,-1.0,10.0,-189.0,-4000.0,-1200.0,-2934.0,-3889.0
-4.0,-17.0,15.0,-594.0,-4000.0,-1737.0,-2869.0,-3268.0
-5.0,-42.0,-55.0,-971.0,-4000.0,-2272.0,-3131.0,-2147.0
-82.0,-47.0,-104.0,-1095.0,-4000.0,-2689.0,-4000.0,-1191.0
-124.0,-81.0,-193.0,-1027.0,-4000.0,-2949.0,-4000.0,-862.0
-170.0,-75.0,-153.0,-829.0,-1768.0,-3378.0,-4000.0,-801.0
-155.0,-49.0,-63.0,-393.0,831.0,-3506.0,-4000.0,-175.0
-106.0,-63.0,-30.0,-140.0,3464.0,-3317.0,-4000.0,851.0
-49.0,-81.0,-21.0,-148.0,4000.0,-1961.0,-4000.0,1894.0
-1.0,-81.0,-88.0,-168.0,4000.0,-1050.0,-4000.0,2575.0
-87.0,-39.0,5.0,123.0,4000.0,-471.0,-4000.0,3806.0
-180.0,-20.0,75.0,598.0,4000.0,628.0,-4000.0,4000.0
-180.0,-2.0,23.0,756.0,4000.0,1033.0,-3013.0,4000.0
-266.0,41.0,-107.0,242.0,4000.0,1969.0,-69.0,4000.0
-142.0,85.0,-210.0,102.0,4000.0,3474.0,2712.0,4000.0
228.0,103.0,-92.0,285.0,4000.0,4000.0,2049.0,4000.0
346.0,105.0,-86.0,295.0,4000.0,3214.0,2582.0,4000.0
438.0,135.0,27.0,642.0,4000.0,2490.0,4000.0,4000.0
351.0,146.0,131.0,952.0,4000.0,2124.0,4000.0,3977.0
249.0,132.0,50.0,1082.0,4000.0,1994.0,4000.0,2739.0
212.0,98.0,138.0,1096.0,4000.0,3101.0,1548.0,2249.0
285.0,63.0,207.0,1509.0,4000.0,4000.0,3103.0,1781.0
308.0,73.0,288.0,1737.0,2955.0,4000.0,4000.0,1281.0
150.0,45.0,345.0,1444.0,1315.0,4000.0,4000.0,1836.0
-18.0,46.0,217.0,1274.0,273.0,4000.0,4000.0,2054.0
-301.0,52.0,51.0,819.0,-596.0,4000.0,4000.0,1456.0
-396.0,52.0,-34.0,337.0,-1333.0,4000.0,4000.0,-124.0
-418.0,64.0,39.0,93.0,-2094.0,3723.0,4000.0,-1339.0
-340.0,56.0,20.0,-197.0,-3197.0,2112.0,4000.0,-1820.0
-323.0,43.0,-114.0,-417.0,-3923.0,576.0,4000.0,-2395.0
-341.0,22.0,-64.0,-140.0,-4000.0,-1747.0,368.0,-3655.0
-286.0,2.0,-8.0,-51.0,-4000.0,-2909.0,-2408.0,-4000.0
-307.0,-43.0,31.0,107.0,-4000.0,-2397.0,-4000.0,-4000.0
-372.0,-90.0,72.0,320.0,-4000.0,-1526.0,-4000.0,-3268.0
-424.0,-158.0,-7.0,316.0,-3917.0,-3104.0,-4000.0,-2153.0
-331.0,-204.0,45.0,494.0,-3433.0,-4000.0,-4000.0,-1985.0
-276.0,-258.0,69.0,538.0,-2741.0,-2803.0,-4000.0,-2022.0
-214.0,-288.0,40.0,740.0,-2016.0,-2209.0,-4000.0,-2128.0
-132.0,-273.0,101.0,740.0,-1497.0,-1975.0,-4000.0,-1924.0
-84.0,-302.0,83.0,386.0,-673.0,-129.0,-4000.0,-1860.0
-40.0,-314.0,36.0,102.0,550.0,-135.0,-4000.0,-1839.0
-41.0,-261.0,-2.0,-82.0,1639.0,-2154.0,-4000.0,-1984.0
47.0,-209.0,-52.0,-255.0,2842.0,-2351.0,-4000.0,-2876.0
111.0,-181.0,-19.0,-328.0,3745.0,-1568.0,-4000.0,-3397.0
133.0,-114.0,7.0,-285.0,3725.0,-1186.0,-4000.0,-3527.0
147.0,-37.0,18.0,-458.0,3772.0,-423.0,-3455.0,-3874.0
127.0,37.0,50.0,-604.0,2944.0,-1047.0,-1918.0,-4000.0
121.0,116.0,16.0,-282.0,1995.0,-2170.0,-224.0,-4000.0
134.0,189.0,65.0,65.0,1538.0,-2547.0,1019.0,-3645.0
225.0,248.0,121.0,245.0,-11.0,-1550.0,1711.0,-2122.0
408.0,290.0,85.0,295.0,-2147.0,-924.0,2232.0,-166.0
517.0,334.0,73.0,207.0,-4000.0,-1396.0,3151.0,817.0
245.0,328.0,10.0,152.0,-4000.0,-2386.0,3855.0,1818.0
-450.0,319.0,-60.0,16.0,-4000.0,-2949.0,3983.0,2550.0
-870.0,323.0,-102.0,264.0,-4000.0,-2367.0,4000.0,2705.0
-238.0,294.0,-124.0,533.0,-4000.0,-2271.0,4000.0,2510.0
310.0,311.0,-94.0,38.0,-4000.0,-2156.0,4000.0,2437.0
668.0,294.0,-56.0,-549.0,-4000.0,-1883.0,4000.0,2507.0
804.0,263.0,-72.0,-900.0,-4000.0,-1505.0,4000.0,2183.0
293.0,225.0,-66.0,-979.0,-4000.0,-716.0,4000.0,1462.0
-28.0,182.0,-6.0,-645.0,-4000.0,-358.0,4000.0,670.0
-120.0,170.0,-14.0,-311.0,-4000.0,-383.0,3811.0,255.0
-31.0,162.0,-25.0,-233.0,-4000.0,-94.0,3607.0,308.0
-44.0,152.0,-4.0,-112.0,-4000.0,104.0,3400.0,499.0
-388.0,160.0,-34.0,199.0,-4000.0,603.0,3140.0,-6.0
-735.0,160.0,-83.0,441.0,-4000.0,953.0,2879.0,40.0
-384.0,130.0,-132.0,548.0,-4000.0,1118.0,2684.0,249.0
-142.0,150.0,-95.0,419.0,-4000.0,1466.0,2486.0,432.0
-60.0,162.0,-79.0,356.0,-2806.0,586.0,2255.0,1468.0
238.0,147.0,-98.0,720.0,-281.0,-641.0,1984.0,1651.0
204.0,116.0,42.0,1249.0,1213.0,-1526.0,1734.0,2094.0
-14.0,44.0,133.0,915.0,2032.0,-2041.0,1711.0,1793.0
-240.0,73.0,140.0,120.0,1657.0,-489.0,1788.0,462.0
-63.0,82.0,260.0,-301.0,-28.0,2319.0,1770.0,-545.0
90.0,-26.0,324.0,-632.0,-2316.0,3658.0,1509.0,-2376.0
199.0,-89.0,213.0,-702.0,-3905.0,3591.0,1255.0,-4000.0
174.0,-114.0,-125.0,-702.0,-3856.0,2694.0,1149.0,-4000.0
-53.0,-153.0,-389.0,-401.0,-3250.0,1292.0,1019.0,-4000.0
4.0,-157.0,-320.0,-218.0,-2212.0,-8.0,968.0,-4000.0
285.0,-131.0,-413.0,-455.0,-1849.0,-1496.0,816.0,-3759.0
725.0,-134.0,-348.0,-580.0,-2857.0,-1746.0,658.0,-2230.0
654.0,-161.0,-150.0,-680.0,-3917.0,-1780.0,571.0,-1279.0
-327.0,-206.0,-122.0,-328.0,-4000.0,-362.0,433.0,60.0
-2126.0,-206.0,-152.0,-458.0,-4000.0,1148.0,504.0,1633.0
-2851.0,-202.0,-292.0,-1109.0,-1077.0,1864.0,608.0,3096.0
-1915.0,-239.0,-168.0,-1370.0,4000.0,1287.0,759.0,3782.0
-1402.0,-233.0,-116.0,-1589.0,4000.0,-180.0,643.0,2754.0
447.0,-188.0,-80.0,-1626.0,4000.0,1379.0,539.0,1306.0
2793.0,-155.0,19.0,-1266.0,4000.0,-472.0,571.0,804.0
3432.0,-147.0,129.0,-544.0,4000.0,-2406.0,759.0,695.0
3314.0,-133.0,253.0,-137.0,4000.0,-1162.0,1098.0,383.0
2343.0,-118.0,231.0,77.0,4000.0,-977.0,1149.0,-572.0
1384.0,-122.0,207.0,356.0,4000.0,1786.0,1316.0,-1204.0
408.0,-127.0,93.0,467.0,4000.0,3018.0,1670.0,-1632.0
-282.0,-111.0,1.0,301.0,4000.0,1405.0,1705.0,-2441.0
-645.0,-97.0,-10.0,262.0,4000.0,596.0,722.0,-2937.0
-909.0,-42.0,18.0,337.0,4000.0,-516.0,-409.0,-3695.0
-1039.0,33.0,34.0,341.0,4000.0,896.0,-723.0,-4000.0
-1156.0,75.0,142.0,564.0,4000.0,2710.0,-1199.0,-4000.0
-1133.0,136.0,278.0,328.0,4000.0,1474.0,-2434.0,-4000.0
-1283.0,111.0,205.0,9.0,4000.0,-178.0,-3455.0,-4000.0
-775.0,66.0,152.0,19.0,4000.0,104.0,-3078.0,-4000.0
-321.0,33.0,51.0,91.0,4000.0,921.0,-1462.0,-4000.0
-166.0,-7.0,-73.0,-68.0,-1051.0,-940.0,-475.0,-4000.0
-91.0,24.0,-94.0,44.0,-4000.0,-1701.0,-854.0,-3923.0
-962.0,38.0,126.0,655.0,-4000.0,-1688.0,-501.0,-2035.0
-1658.0,63.0,370.0,604.0,-4000.0,-2713.0,753.0,-72.0
-1170.0,79.0,372.0,337.0,-4000.0,-2998.0,1060.0,2094.0
-274.0,48.0,331.0,229.0,-4000.0,-2469.0,308.0,4000.0
302.0,41.0,31.0,113.0,-4000.0,-2077.0,-933.0,4000.0
460.0,16.0,-362.0,374.0,-4000.0,-2401.0,-1397.0,4000.0
13.0,-10.0,-603.0,538.0,-4000.0,-2341.0,-1527.0,4000.0
82.0,-27.0,-609.0,182.0,-4000.0,-2170.0,-2237.0,4000.0
733.0,-50.0,-519.0,47.0,-4000.0,-1444.0,-967.0,4000.0
209.0,-75.0,-320.0,5.0,-4000.0,-846.0,83.0,2575.0
-1365.0,-34.0,-14.0,365.0,-4000.0,-393.0,-607.0,1069.0
-1801.0,53.0,92.0,630.0,-4000.0,-14.0,-1851.0,-555.0
427.0,125.0,152.0,215.0,-4000.0,-148.0,-2223.0,-2747.0
1822.0,115.0,215.0,-307.0,-4000.0,6.0,-1206.0,-4000.0
2809.0,25.0,202.0,-1180.0,-4000.0,339.0,-1397.0,-4000.0
3265.0,-40.0,142.0,-979.0,-4000.0,576.0,-2251.0,-4000.0
2080.0,-108.0,123.0,-552.0,-4000.0,592.0,-3802.0,-4000.0
-63.0,-163.0,103.0,-702.0,-4000.0,494.0,-3898.0,-3708.0
-4000.0,-147.0,150.0,-849.0,-4000.0,616.0,-676.0,2380.0
-4000.0,-81.0,119.0,-1095.0,-2887.0,933.0,2426.0,4000.0
-741.0,-59.0,81.0,-1089.0,-1731.0,1092.0,3103.0,4000.0
798.0,-106.0,115.0,-695.0,-1814.0,1639.0,1693.0,4000.0
2483.0,-143.0,51.0,-456.0,-1649.0,2382.0,2190.0,4000.0
2987.0,-177.0,34.0,-318.0,-1552.0,2567.0,2863.0,4000.0
1897.0,-231.0,10.0,-32.0,-1672.0,2775.0,-159.0,4000.0
1065.0,-178.0,83.0,229.0,-1854.0,2629.0,-3688.0,4000.0
-44.0,-112.0,95.0,356.0,-637.0,2645.0,-3575.0,4000.0
-1261.0,-107.0,88.0,590.0,2165.0,2942.0,-1527.0,4000.0
-481.0,-111.0,150.0,880.0,3837.0,2450.0,-2793.0,4000.0
1767.0,-158.0,89.0,668.0,4000.0,2442.0,-4000.0,4000.0
2350.0,-68.0,60.0,393.0,4000.0,2320.0,-4000.0,4000.0
2728.0,34.0,-23.0,245.0,4000.0,2308.0,-4000.0,4000.0
1987.0,70.0,-98.0,352.0,4000.0,2629.0,-2869.0,-3387.0
433.0,133.0,-83.0,400.0,4000.0,2759.0,1735.0,-4000.0
-1019.0,125.0,-99.0,271.0,4000.0,3018.0,3593.0,-4000.0
-2611.0,77.0,-94.0,500.0,4000.0,2953.0,3607.0,-4000.0
-3353.0,19.0,-114.0,1045.0,4000.0,2971.0,3282.0,-4000.0
-3476.0,4.0,-234.0,1096.0,4000.0,3083.0,1341.0,-4000.0
-4000.0,8.0,-259.0,1104.0,4000.0,2877.0,-2367.0,-4000.0
-4000.0,23.0,-174.0,1424.0,4000.0,2363.0,-4000.0,-4000.0
-4000.0,21.0,-194.0,1228.0,4000.0,1527.0,-2858.0,-4000.0
477.0,-72.0,-159.0,1306.0,4000.0,613.0,-1652.0,-4000.0
4000.0,-94.0,-53.0,524.0,4000.0,497.0,-717.0,-4000.0
4000.0,10.0,-45.0,-560.0,4000.0,1292.0,2579.0,-4000.0
4000.0,102.0,-68.0,-704.0,4000.0,2503.0,4000.0,-4000.0
4000.0,160.0,-105.0,-1638.0,3916.0,2953.0,4000.0,-4000.0
4000.0,148.0,-24.0,-2093.0,3410.0,1734.0,4000.0,-4000.0
1281.0,33.0,85.0,-1955.0,3037.0,433.0,1800.0,-4000.0
-132.0,12.0,139.0,-1737.0,2254.0,-550.0,-290.0,-4000.0
-314.0,-31.0,160.0,-1310.0,1488.0,-1489.0,-1819.0,4000.0
363.0,-37.0,225.0,-1200.0,570.0,-2040.0,-2495.0,4000.0
-712.0,108.0,251.0,-841.0,76.0,-2041.0,-2139.0,4000.0
-2220.0,173.0,64.0,-979.0,-681.0,-2008.0,-102.0,4000.0
-4000.0,152.0,-111.0,-877.0,-1768.0,-1794.0,2708.0,4000.0
-4000.0,115.0,-182.0,-498.0,-2147.0,-1167.0,2161.0,2689.0
-2944.0,70.0,-200.0,-381.0,-2250.0,-1396.0,205.0,-620.0
447.0,-3.0,-173.0,-33.0,-2370.0,-1688.0,162.0,-889.0
1498.0,23.0,-103.0,170.0,-2806.0,-1912.0,158.0,-614.0
1569.0,28.0,-37.0,276.0,-3018.0,-1975.0,2387.0,-189.0
920.0,-16.0,36.0,420.0,-2791.0,-1916.0,1801.0,418.0
955.0,24.0,125.0,459.0,-1060.0,-1912.0,2941.0,2835.0
1051.0,13.0,57.0,323.0,737.0,-1489.0,4000.0,4000.0
-706.0,-3.0,-60.0,315.0,1026.0,-1330.0,2826.0,4000.0
-3760.0,-36.0,-161.0,484.0,1213.0,-1245.0,1353.0,4000.0
-1466.0,-36.0,54.0,577.0,1398.0,-1248.0,-1249.0,4000.0
1051.0,-2.0,193.0,548.0,1710.0,-771.0,-620.0,4000.0
-2336.0,-39.0,113.0,328.0,2124.0,-607.0,857.0,4000.0
772.0,-89.0,230.0,296.0,2569.0,-945.0,506.0,4000.0
4000.0,-151.0,150.0,179.0,2556.0,-1100.0,-281.0,4000.0
4000.0,-162.0,98.0,113.0,2177.0,-1257.0,-110.0,4000.0
3563.0,-106.0,6.0,180.0,1930.0,-1379.0,1397.0,4000.0
100.0,-50.0,-198.0,-3.0,2060.0,-1383.0,-24.0,4000.0
-935.0,-62.0,-252.0,94.0,2569.0,-1330.0,-575.0,2245.0
-1560.0,-54.0,-183.0,259.0,2825.0,-1257.0,274.0,-581.0
-2517.0,17.0,-74.0,394.0,2955.0,-1118.0,63.0,686.0
-2611.0,80.0,-84.0,655.0,2842.0,-1118.0,-1832.0,1437.0
-2219.0,70.0,-47.0,773.0,2630.0,-1056.0,-1551.0,157.0
-1072.0,49.0,-38.0,613.0,2189.0,-989.0,1526.0,-345.0
-1430.0,52.0,-69.0,498.0,1842.0,-881.0,3128.0,-1924.0
-691.0,17.0,-59.0,569.0,1918.0,-867.0,3203.0,-3333.0
-273.0,47.0,-36.0,238.0,1474.0,-855.0,1019.0,-4000.0
-132.0,57.0,-33.0,-239.0,1329.0,-705.0,1027.0,-4000.0
-388.0,37.0,-15.0,-202.0,1189.0,-485.0,533.0,-4000.0
-960.0,-53.0,32.0,90.0,220.0,-172.0,-290.0,-4000.0
204.0,-171.0,69.0,155.0,-486.0,-104.0,554.0,-4000.0
1280.0,-179.0,64.0,-166.0,-306.0,-118.0,759.0,-4000.0
837.0,-169.0,11.0,-328.0,245.0,99.0,1341.0,-4000.0
668.0,-108.0,-18.0,-386.0,660.0,433.0,954.0,-3824.0
1596.0,-92.0,-143.0,-630.0,692.0,498.0,750.0,-3138.0
1987.0,-78.0,-245.0,-877.0,385.0,550.0,726.0,-2319.0
994.0,-40.0,-93.0,-659.0,-95.0,699.0,903.0,-1632.0
-719.0,-60.0,28.0,-277.0,-818.0,831.0,303.0,-1191.0
-779.0,-43.0,-139.0,25.0,-1552.0,860.0,-1755.0,-651.0
-859.0,-60.0,-147.0,494.0,-1768.0,953.0,-4000.0,-92.0
306.0,-23.0,-86.0,467.0,-1378.0,1071.0,-4000.0,267.0
834.0,-7.0,-135.0,459.0,-1312.0,622.0,-4000.0,811.0
281.0,-88.0,-59.0,413.0,-1375.0,467.0,-4000.0,1000.0
159.0,-106.0,-63.0,238.0,-1333.0,115.0,-4000.0,860.0
-288.0,-95.0,-54.0,299.0,-1333.0,-448.0,-4000.0,410.0
640.0,-98.0,-83.0,144.0,-1117.0,-708.0,-4000.0,210.0
67.0,-28.0,-125.0,223.0,-1077.0,-1461.0,-4000.0,459.0
-21.0,80.0,-35.0,276.0,-1129.0,-2025.0,-3585.0,615.0
315.0,52.0,-73.0,210.0,-1163.0,-2014.0,-2042.0,344.0
446.0,-27.0,-564.0,140.0,-599.0,-1747.0,-1169.0,-83.0
570.0,30.0,-1403.0,1.0,-41.0,-1318.0,149.0,206.0
-29.0,67.0,-886.0,-55.0,207.0,-982.0,910.0,634.0
-61.0,60.0,467.0,-70.0,236.0,-816.0,1866.0,1142.0
-156.0,69.0,957.0,-34.0,-374.0,-721.0,2442.0,1660.0
79.0,72.0,1322.0,16.0,-291.0,-442.0,2890.0,2054.0
-62.0,149.0,1153.0,-72.0,692.0,-11.0,3202.0,2498.0
-43.0,179.0,629.0,-285.0,1204.0,142.0,3282.0,2742.0
92.0,125.0,296.0,-279.0,1006.0,-137.0,3347.0,3198.0
135.0,26.0,20.0,-187.0,373.0,-867.0,3151.0,3458.0
36.0,-32.0,17.0,81.0,118.0,-1701.0,3086.0,3328.0
-83.0,-34.0,-53.0,626.0,375.0,-1461.0,2712.0,2754.0
14.0,-11.0,-20.0,1367.0,440.0,-802.0,2426.0,1964.0
-104.0,11.0,38.0,1757.0,595.0,-375.0,1996.0,1859.0
-46.0,69.0,103.0,1228.0,415.0,406.0,1711.0,2219.0
-32.0,114.0,67.0,268.0,-144.0,1417.0,1475.0,2237.0
27.0,132.0,-125.0,-1023.0,-1235.0,1092.0,1206.0,1833.0
27.0,176.0,-373.0,-1691.0,-1228.0,921.0,1092.0,1382.0
24.0,187.0,-548.0,-1813.0,902.0,1521.0,946.0,1150.0
-29.0,251.0,-470.0,-1839.0,2421.0,1474.0,753.0,1567.0
-83.0,290.0,-1158.0,-1675.0,1455.0,1123.0,559.0,1989.0
-110.0,212.0,-2745.0,-1479.0,-421.0,510.0,349.0,1989.0
-157.0,102.0,-4000.0,-761.0,-2010.0,-450.0,134.0,1704.0
-161.0,109.0,-4000.0,-194.0,-3510.0,-2041.0,109.0,1521.0
-228.0,112.0,-4000.0,-68.0,-3445.0,-2286.0,70.0,1704.0
-208.0,162.0,-931.0,23.0,-2627.0,-816.0,61.0,1753.0
-168.0,374.0,2653.0,167.0,-2277.0,510.0,105.0,1446.0
-132.0,527.0,3510.0,203.0,-1600.0,1799.0,37.0,332.0
-127.0,587.0,4000.0,320.0,-1319.0,2438.0,205.0,-659.0
-128.0,592.0,3251.0,402.0,-1638.0,2034.0,403.0,-875.0
-119.0,652.0,1965.0,402.0,-1918.0,1026.0,366.0,-679.0
-67.0,713.0,4000.0,337.0,-2122.0,822.0,303.0,-990.0
-94.0,369.0,4000.0,161.0,-1915.0,1907.0,184.0,-2147.0
-157.0,217.0,2030.0,113.0,-1638.0,1247.0,374.0,-2617.0
-166.0,122.0,-1557.0,149.0,-1514.0,571.0,587.0,-2062.0
-111.0,-358.0,-2639.0,272.0,-1250.0,400.0,563.0,-1644.0
2.0,-552.0,807.0,289.0,-1142.0,141.0,628.0,-2153.0
-21.0,-763.0,361.0,238.0,-987.0,266.0,693.0,-2698.0
5.0,-836.0,1438.0,156.0,-846.0,-77.0,750.0,-3333.0
27.0,-503.0,4000.0,15.0,-681.0,-7.0,608.0,-4000.0
17.0,-118.0,4000.0,47.0,-584.0,-25.0,576.0,-4000.0
