-440.0,102.0,-4000.0,238.0,3982.0,-1586.0,791.0,-382.0
-351.0,76.0,-4000.0,301.0,2363.0,-1652.0,319.0,-202.0
-354.0,93.0,-4000.0,271.0,1865.0,-1701.0,-226.0,63.0
-448.0,111.0,-4000.0,61.0,1474.0,-1715.0,-33.0,-130.0
-323.0,122.0,-4000.0,-157.0,209.0,-1669.0,-233.0,-543.0
-186.0,78.0,-4000.0,-393.0,-1756.0,-1709.0,-188.0,-804.0
-253.0,53.0,-4000.0,-515.0,-2081.0,-1782.0,-493.0,-279.0
-179.0,22.0,-4000.0,-540.0,-602.0,-1634.0,-722.0,-209.0
-52.0,-42.0,-4000.0,-515.0,224.0,-1330.0,-882.0,-1050.0
-16.0,-52.0,-3884.0,-424.0,-339.0,-1140.0,-1116.0,-1123.0
32.0,-47.0,-2786.0,-351.0,-1194.0,-875.0,-1071.0,-1064.0
-65.0,-40.0,-1581.0,-306.0,-1750.0,-663.0,-1181.0,-1404.0
-52.0,-6.0,-772.0,-348.0,-2289.0,-600.0,-986.0,-1670.0
64.0,8.0,-120.0,-372.0,-2650.0,-489.0,-1043.0,-2450.0
147.0,1.0,496.0,-271.0,-3066.0,-391.0,-941.0,-2806.0
281.0,51.0,556.0,-200.0,-3867.0,-349.0,-519.0,-2472.0
342.0,47.0,51.0,-124.0,-4000.0,-320.0,-58.0,-2228.0
382.0,26.0,-841.0,-88.0,-4000.0,-289.0,46.0,-1859.0
293.0,24.0,-2092.0,-26.0,-4000.0,-216.0,-522.0,-1241.0
77.0,-18.0,-2889.0,34.0,-4000.0,-211.0,-743.0,-733.0
-58.0,-41.0,-3420.0,29.0,-4000.0,-167.0,-187.0,-350.0
11.0,-38.0,-3591.0,19.0,-4000.0,-44.0,390.0,685.0
-16.0,-26.0,-2086.0,-115.0,-4000.0,30.0,53.0,1633.0
-502.0,-31.0,55.0,-252.0,-4000.0,183.0,-417.0,1639.0
-710.0,10.0,1544.0,-336.0,-4000.0,544.0,73.0,1769.0
-92.0,20.0,1810.0,-414.0,-4000.0,815.0,1971.0,2119.0
373.0,-31.0,-263.0,-523.0,-4000.0,994.0,2820.0,1898.0
375.0,-42.0,-4000.0,-515.0,-4000.0,1204.0,2125.0,1986.0
-331.0,-50.0,-4000.0,-317.0,-4000.0,1270.0,1854.0,1792.0
-830.0,-78.0,-4000.0,-195.0,-4000.0,1405.0,1078.0,1085.0
-106.0,-92.0,-1760.0,-140.0,-4000.0,1604.0,877.0,695.0
382.0,-135.0,3575.0,-41.0,-4000.0,1734.0,1194.0,586.0
1281.0,-146.0,4000.0,23.0,-3051.0,1572.0,1019.0,547.0
1476.0,-84.0,4000.0,-4.0,-1588.0,1287.0,1027.0,205.0
837.0,-79.0,4000.0,33.0,-987.0,1266.0,1122.0,-117.0
473.0,-31.0,4000.0,100.0,-321.0,1273.0,945.0,-226.0
-160.0,-8.0,3971.0,73.0,-1272.0,1063.0,393.0,-341.0
-367.0,-15.0,2924.0,129.0,-3456.0,749.0,-90.0,-340.0
-497.0,37.0,2795.0,197.0,-4000.0,608.0,-565.0,-197.0
-508.0,34.0,2746.0,264.0,-4000.0,531.0,-630.0,-195.0
-417.0,18.0,1888.0,270.0,-4000.0,339.0,-228.0,-15.0
-277.0,-5.0,866.0,280.0,-4000.0,35.0,441.0,196.0
4.0,20.0,-149.0,347.0,-4000.0,-169.0,571.0,151.0
13.0,74.0,-804.0,290.0,-4000.0,-125.0,-85.0,223.0
-128.0,40.0,-1831.0,179.0,-4000.0,23.0,166.0,322.0
-56.0,25.0,-2306.0,102.0,-4000.0,208.0,1202.0,391.0
6.0,2.0,-2346.0,152.0,-4000.0,243.0,1996.0,597.0
-209.0,29.0,-1878.0,191.0,-4000.0,-35.0,2244.0,645.0
-361.0,29.0,-1452.0,175.0,-4000.0,-436.0,1967.0,731.0
-331.0,8.0,-1362.0,146.0,-4000.0,-535.0,921.0,1112.0
-250.0,11.0,-1101.0,73.0,-4000.0,-354.0,-381.0,1182.0
-79.0,-7.0,-1198.0,-9.0,-4000.0,-289.0,-697.0,713.0
50.0,-21.0,-1171.0,-49.0,-4000.0,-453.0,-477.0,399.0
-23.0,-6.0,-1171.0,-62.0,-4000.0,-470.0,-797.0,141.0
-48.0,21.0,-1294.0,-152.0,-4000.0,-565.0,-1583.0,-215.0
131.0,-22.0,-1276.0,-133.0,-4000.0,-810.0,-1303.0,-53.0
465.0,-2.0,-912.0,-30.0,-4000.0,-867.0,-146.0,81.0
574.0,-1.0,-473.0,3.0,-4000.0,-750.0,608.0,50.0
346.0,-40.0,-320.0,-20.0,-4000.0,-844.0,14.0,499.0
102.0,-58.0,-298.0,-63.0,-4000.0,-1383.0,-1011.0,719.0
-134.0,-114.0,-344.0,-55.0,-4000.0,-1766.0,-1570.0,76.0
-247.0,-155.0,-389.0,-92.0,-291.0,-1880.0,-1997.0,-357.0
-250.0,-165.0,-297.0,-105.0,4000.0,-1526.0,-1519.0,-655.0
-211.0,-168.0,-22.0,-39.0,4000.0,-1367.0,-1201.0,-1077.0
-163.0,-125.0,140.0,-22.0,4000.0,-1599.0,-1187.0,-1469.0
-153.0,-54.0,152.0,-36.0,4000.0,-1290.0,-1071.0,-2022.0
-63.0,-6.0,225.0,-20.0,4000.0,-1382.0,-1291.0,-2165.0
96.0,29.0,246.0,21.0,4000.0,-1437.0,-1551.0,-2121.0
245.0,32.0,290.0,59.0,4000.0,-985.0,-1822.0,-2193.0
274.0,37.0,315.0,84.0,4000.0,-875.0,-1397.0,-2350.0
281.0,38.0,272.0,80.0,4000.0,-1233.0,-717.0,-2415.0
222.0,40.0,288.0,48.0,4000.0,-1582.0,-268.0,-2395.0
225.0,73.0,263.0,35.0,4000.0,-1587.0,-47.0,-2578.0
315.0,55.0,250.0,45.0,4000.0,-1502.0,-446.0,-2800.0
325.0,27.0,309.0,71.0,4000.0,-1096.0,-741.0,-3048.0
315.0,36.0,309.0,77.0,4000.0,-750.0,-657.0,-3138.0
308.0,-3.0,284.0,77.0,4000.0,-562.0,-493.0,-3057.0
660.0,-27.0,252.0,39.0,4000.0,-398.0,-174.0,-2893.0
914.0,-16.0,184.0,19.0,4000.0,-182.0,-10.0,-2114.0
427.0,-46.0,165.0,27.0,4000.0,-42.0,-74.0,-1005.0
-60.0,-19.0,217.0,15.0,4000.0,40.0,-150.0,111.0
-305.0,7.0,337.0,60.0,3794.0,205.0,71.0,765.0
-476.0,-16.0,450.0,104.0,2178.0,303.0,498.0,853.0
-106.0,-30.0,592.0,74.0,1734.0,433.0,652.0,876.0
371.0,-44.0,651.0,73.0,1579.0,526.0,506.0,676.0
216.0,-12.0,589.0,100.0,1279.0,636.0,90.0,825.0
-27.0,-2.0,384.0,167.0,-197.0,701.0,-178.0,1142.0
-67.0,18.0,80.0,132.0,-1820.0,628.0,-172.0,941.0
-203.0,14.0,-138.0,134.0,-3456.0,616.0,-47.0,615.0
-253.0,16.0,-298.0,238.0,-4000.0,641.0,85.0,352.0
-407.0,50.0,-314.0,181.0,-4000.0,571.0,102.0,12.0
-445.0,58.0,-125.0,400.0,-3898.0,766.0,-4.0,-189.0
-416.0,46.0,-36.0,728.0,-2741.0,944.0,-117.0,-256.0
-396.0,-12.0,-38.0,452.0,-1885.0,1026.0,-149.0,-245.0
186.0,-18.0,-38.0,-200.0,-3132.0,1204.0,-6.0,-269.0
841.0,5.0,-91.0,-555.0,-4000.0,1398.0,368.0,-362.0
635.0,7.0,-15.0,-784.0,-4000.0,1759.0,603.0,-34.0
595.0,1.0,-29.0,-914.0,-4000.0,2031.0,643.0,786.0
452.0,4.0,-75.0,-589.0,-4000.0,2163.0,384.0,1286.0
-416.0,-44.0,71.0,-472.0,-4000.0,2190.0,-23.0,1769.0
-767.0,-136.0,328.0,-711.0,-4000.0,2254.0,-353.0,2575.0
-1045.0,-114.0,592.0,-397.0,-4000.0,2124.0,-595.0,3096.0
-1105.0,-14.0,611.0,138.0,-4000.0,1852.0,-649.0,3031.0
-1091.0,-47.0,402.0,97.0,-4000.0,1573.0,-353.0,2705.0
-1091.0,-71.0,-259.0,81.0,-3539.0,1395.0,160.0,2510.0
-951.0,-68.0,-963.0,37.0,2630.0,1148.0,380.0,2507.0
-942.0,-72.0,-1292.0,-9.0,4000.0,831.0,346.0,2624.0
-632.0,44.0,-1811.0,-7.0,4000.0,619.0,191.0,2624.0
-367.0,30.0,-2039.0,-36.0,4000.0,355.0,113.0,2624.0
-331.0,-80.0,-1834.0,18.0,4000.0,380.0,-42.0,2807.0
-280.0,-118.0,-1732.0,108.0,4000.0,390.0,-378.0,3079.0
74.0,-108.0,-1015.0,211.0,4000.0,37.0,-929.0,3458.0
163.0,-64.0,438.0,227.0,4000.0,-267.0,-1317.0,3422.0
155.0,-42.0,1835.0,264.0,1417.0,-594.0,-1116.0,3523.0
422.0,-82.0,2852.0,240.0,-2550.0,-988.0,-532.0,3600.0
870.0,-117.0,3202.0,251.0,-4000.0,-906.0,628.0,3600.0
1026.0,-125.0,2989.0,226.0,-3539.0,-641.0,1264.0,3458.0
574.0,-83.0,2408.0,157.0,-374.0,-411.0,548.0,2948.0
361.0,13.0,1426.0,129.0,3085.0,-149.0,-219.0,2288.0
93.0,59.0,193.0,55.0,4000.0,126.0,-68.0,1309.0
277.0,70.0,-601.0,27.0,4000.0,341.0,154.0,538.0
1346.0,18.0,-629.0,-4.0,4000.0,398.0,129.0,-244.0
2222.0,52.0,-711.0,-44.0,4000.0,608.0,642.0,-818.0
1420.0,115.0,-827.0,-143.0,4000.0,673.0,962.0,-1494.0
212.0,74.0,-727.0,-175.0,4000.0,713.0,1092.0,-2454.0
-413.0,73.0,-1471.0,-121.0,4000.0,854.0,1996.0,-3189.0
-1392.0,74.0,-2210.0,-41.0,4000.0,854.0,2505.0,-4000.0
-1699.0,69.0,-2511.0,-153.0,4000.0,882.0,1931.0,-4000.0
-1669.0,47.0,-2981.0,-247.0,2125.0,974.0,1475.0,-4000.0
-1219.0,92.0,-3176.0,-95.0,-1951.0,923.0,595.0,-4000.0
-934.0,152.0,-2513.0,-50.0,-4000.0,758.0,-19.0,-4000.0
-685.0,131.0,-1518.0,-24.0,-4000.0,510.0,855.0,-4000.0
-233.0,111.0,450.0,-36.0,-4000.0,274.0,1388.0,-4000.0
-176.0,70.0,3041.0,-66.0,-4000.0,412.0,1704.0,-4000.0
-102.0,52.0,3251.0,-72.0,-4000.0,596.0,1223.0,-4000.0
-32.0,28.0,2278.0,-75.0,-4000.0,537.0,254.0,-3844.0
342.0,-5.0,1438.0,3.0,-4000.0,459.0,-14.0,-3085.0
328.0,22.0,1680.0,2.0,-4000.0,439.0,-598.0,-2280.0
322.0,55.0,2027.0,53.0,-4000.0,177.0,-224.0,-1970.0
586.0,34.0,2408.0,97.0,-4000.0,-101.0,571.0,-2050.0
589.0,26.0,3380.0,126.0,-4000.0,-379.0,1092.0,-2302.0
574.0,41.0,2876.0,72.0,-588.0,-881.0,1467.0,-2478.0
505.0,24.0,1965.0,-5.0,1992.0,-1422.0,857.0,-2617.0
493.0,7.0,914.0,-2.0,4000.0,-1995.0,144.0,-2735.0
397.0,51.0,89.0,-18.0,4000.0,-2484.0,191.0,-2409.0
269.0,80.0,-434.0,-5.0,4000.0,-2919.0,628.0,-2022.0
204.0,38.0,-898.0,-31.0,4000.0,-3376.0,162.0,-1469.0
196.0,8.0,-737.0,-10.0,4000.0,-3763.0,-134.0,-776.0
220.0,7.0,-761.0,63.0,4000.0,-4000.0,62.0,19.0
137.0,29.0,-892.0,55.0,4000.0,-4000.0,120.0,811.0
44.0,117.0,-1342.0,-35.0,4000.0,-3583.0,-40.0,1502.0
24.0,134.0,-2806.0,-75.0,4000.0,-2791.0,-76.0,2245.0
20.0,108.0,-4000.0,-75.0,4000.0,-1780.0,97.0,3002.0
17.0,120.0,-2888.0,-73.0,4000.0,-696.0,-104.0,3832.0
-21.0,95.0,-389.0,-75.0,4000.0,210.0,-182.0,4000.0
1.0,42.0,-86.0,-83.0,3558.0,837.0,-287.0,4000.0
-36.0,-31.0,-564.0,-74.0,-13.0,1157.0,-359.0,4000.0
-23.0,-88.0,-2536.0,-110.0,-3507.0,1704.0,-522.0,4000.0
277.0,-92.0,-2188.0,-93.0,-4000.0,2320.0,-530.0,4000.0
351.0,-75.0,85.0,-34.0,-4000.0,2824.0,-434.0,4000.0
39.0,-81.0,762.0,-21.0,-4000.0,3467.0,-522.0,4000.0
-80.0,-127.0,-1257.0,-25.0,-4000.0,4000.0,-527.0,4000.0
-67.0,-161.0,-4000.0,-71.0,-4000.0,4000.0,-435.0,4000.0
-85.0,-60.0,-2954.0,-66.0,-4000.0,4000.0,-349.0,4000.0
76.0,33.0,2941.0,-25.0,-4000.0,4000.0,-445.0,3716.0
530.0,20.0,4000.0,-19.0,-4000.0,4000.0,-475.0,2770.0
843.0,-12.0,3304.0,32.0,-4000.0,4000.0,-489.0,1724.0
329.0,-12.0,801.0,162.0,-4000.0,4000.0,-477.0,760.0
-146.0,70.0,77.0,240.0,-4000.0,3914.0,-412.0,3.0
-288.0,124.0,1908.0,144.0,-3148.0,3539.0,-355.0,-796.0
-518.0,30.0,4000.0,124.0,1083.0,3267.0,-418.0,-1429.0
-553.0,-89.0,4000.0,169.0,4000.0,2824.0,-485.0,-1921.0
-637.0,66.0,4000.0,116.0,4000.0,2316.0,-355.0,-2385.0
-691.0,121.0,1888.0,39.0,4000.0,1839.0,-252.0,-2556.0
-647.0,12.0,-258.0,74.0,4000.0,1253.0,-338.0,-2723.0
-631.0,22.0,-22.0,69.0,4000.0,558.0,-485.0,-2800.0
-513.0,63.0,-544.0,15.0,4000.0,309.0,-450.0,-2543.0
-392.0,34.0,-1081.0,91.0,4000.0,415.0,-340.0,-2230.0
-365.0,-43.0,-1476.0,85.0,4000.0,276.0,-355.0,-1738.0
-245.0,-70.0,-1852.0,22.0,4000.0,6.0,-412.0,-1298.0
-168.0,-111.0,-1557.0,7.0,4000.0,-114.0,-247.0,-1391.0
-174.0,-105.0,-1278.0,-42.0,4000.0,-219.0,-189.0,-1200.0
-27.0,-108.0,-1036.0,-78.0,4000.0,-326.0,-598.0,-948.0
74.0,-108.0,-1171.0,-121.0,4000.0,-358.0,-933.0,-750.0
139.0,-69.0,-1347.0,-198.0,4000.0,-786.0,-745.0,-232.0
204.0,-14.0,-1638.0,-287.0,4000.0,-1518.0,-501.0,-99.0
215.0,-44.0,-1636.0,-255.0,4000.0,-2457.0,-172.0,-3.0
269.0,-118.0,-1214.0,-152.0,4000.0,-3405.0,110.0,-114.0
367.0,-77.0,-544.0,-78.0,4000.0,-4000.0,243.0,190.0
399.0,-73.0,-442.0,-73.0,4000.0,-4000.0,367.0,955.0
351.0,-49.0,-250.0,-70.0,4000.0,-4000.0,455.0,859.0
322.0,28.0,-98.0,-16.0,4000.0,-4000.0,494.0,831.0
233.0,11.0,125.0,-61.0,4000.0,-4000.0,102.0,1272.0
155.0,34.0,333.0,-108.0,4000.0,-4000.0,-123.0,1502.0
102.0,29.0,263.0,-79.0,1380.0,-4000.0,134.0,1323.0
63.0,29.0,252.0,-87.0,-2369.0,-4000.0,481.0,1207.0
56.0,45.0,119.0,-87.0,-4000.0,-4000.0,642.0,1698.0
74.0,30.0,158.0,-90.0,-4000.0,-4000.0,726.0,2054.0
64.0,59.0,-11.0,-92.0,-4000.0,-3919.0,812.0,1867.0
-16.0,52.0,-198.0,-55.0,-4000.0,-2803.0,871.0,1728.0
-109.0,21.0,-393.0,-76.0,-4000.0,-1715.0,1059.0,1532.0
-160.0,5.0,-429.0,-65.0,-4000.0,-862.0,945.0,932.0
-181.0,11.0,-450.0,-64.0,-4000.0,-255.0,673.0,600.0
-132.0,40.0,-233.0,-107.0,-4000.0,329.0,412.0,725.0
-33.0,40.0,741.0,-103.0,-4000.0,929.0,374.0,586.0
-32.0,17.0,1939.0,51.0,-4000.0,1352.0,268.0,387.0
-29.0,10.0,2455.0,220.0,-4000.0,1592.0,124.0,600.0
-6.0,-46.0,1636.0,239.0,-4000.0,1734.0,554.0,914.0
-20.0,-72.0,498.0,144.0,-4000.0,1864.0,642.0,1130.0
-19.0,-48.0,-10.0,85.0,-4000.0,1839.0,259.0,1134.0
-32.0,1.0,-192.0,8.0,-4000.0,1799.0,163.0,896.0
-135.0,26.0,-268.0,-133.0,-4000.0,1734.0,86.0,686.0
-182.0,28.0,-75.0,-178.0,-4000.0,1591.0,50.0,544.0
-107.0,58.0,-162.0,-248.0,-4000.0,1539.0,249.0,241.0
-62.0,60.0,-804.0,-222.0,-4000.0,1638.0,201.0,-221.0
-27.0,95.0,-1041.0,-212.0,-4000.0,1919.0,153.0,-710.0
-10.0,129.0,-741.0,-214.0,-4000.0,2319.0,85.0,-1078.0
61.0,148.0,-820.0,-99.0,-4000.0,2363.0,127.0,-1298.0
58.0,117.0,-976.0,-28.0,-4000.0,2125.0,169.0,-1235.0
56.0,83.0,-711.0,3.0,-4000.0,1904.0,32.0,-1050.0
77.0,55.0,-358.0,12.0,-4000.0,1669.0,235.0,-1143.0
25.0,-3.0,-21.0,31.0,-4000.0,1482.0,168.0,-1208.0
31.0,-46.0,268.0,77.0,-4000.0,1352.0,-277.0,-1245.0
32.0,-57.0,663.0,116.0,-4000.0,1279.0,-657.0,-1255.0
29.0,-39.0,923.0,87.0,-3343.0,1118.0,-642.0,-1185.0
8.0,-45.0,202.0,122.0,-1802.0,945.0,-385.0,-1127.0
-2.0,-12.0,-422.0,130.0,553.0,921.0,-107.0,-1005.0
-26.0,52.0,-466.0,109.0,2485.0,987.0,-125.0,-909.0
1.0,-1.0,-478.0,122.0,4000.0,1006.0,-290.0,-602.0
3.0,-167.0,-389.0,93.0,4000.0,1045.0,-334.0,-341.0
-28.0,-181.0,24.0,85.0,4000.0,988.0,-613.0,-187.0
-85.0,-14.0,1127.0,97.0,4000.0,815.0,-555.0,-2.0
-143.0,197.0,1387.0,142.0,4000.0,822.0,-306.0,177.0
-124.0,200.0,476.0,76.0,4000.0,876.0,-204.0,302.0
-128.0,87.0,671.0,37.0,4000.0,858.0,-459.0,369.0
-61.0,19.0,1094.0,49.0,4000.0,815.0,-485.0,399.0
-18.0,-133.0,-159.0,-13.0,4000.0,791.0,-69.0,338.0
2.0,-73.0,-1348.0,-14.0,4000.0,701.0,149.0,322.0
7.0,-26.0,-1601.0,-59.0,4000.0,641.0,6.0,300.0
-17.0,-15.0,-747.0,-39.0,4000.0,619.0,-475.0,239.0
18.0,178.0,325.0,13.0,4000.0,669.0,-527.0,161.0
17.0,162.0,331.0,-23.0,4000.0,766.0,-349.0,74.0
48.0,66.0,360.0,29.0,4000.0,771.0,-210.0,5.0
102.0,222.0,728.0,217.0,4000.0,953.0,-155.0,-63.0
127.0,343.0,931.0,196.0,4000.0,1075.0,-221.0,-116.0
157.0,318.0,1249.0,-175.0,4000.0,896.0,-273.0,-183.0
122.0,260.0,1680.0,-293.0,4000.0,685.0,-524.0,-262.0
28.0,248.0,1045.0,-321.0,4000.0,467.0,-550.0,-325.0
39.0,294.0,-512.0,-288.0,4000.0,286.0,-412.0,-471.0
43.0,254.0,-1016.0,-146.0,4000.0,111.0,-475.0,-622.0
-45.0,126.0,-776.0,-149.0,4000.0,-162.0,-500.0,-620.0
-67.0,-34.0,-257.0,-87.0,4000.0,-312.0,-530.0,-549.0
-123.0,-260.0,1088.0,-125.0,4000.0,-372.0,-546.0,-687.0
-161.0,-358.0,3119.0,-62.0,4000.0,-505.0,-555.0,-875.0
-111.0,-288.0,3235.0,5.0,4000.0,-630.0,-489.0,-809.0
-55.0,-314.0,-22.0,-4.0,4000.0,-810.0,-385.0,-562.0
-67.0,-306.0,-2835.0,-48.0,4000.0,-881.0,-363.0,-305.0
-49.0,-125.0,-3526.0,-131.0,4000.0,-859.0,-373.0,-59.0
52.0,3.0,-3160.0,-88.0,4000.0,-786.0,-371.0,462.0
34.0,79.0,-2385.0,-74.0,4000.0,-696.0,-348.0,261.0
8.0,43.0,-1471.0,26.0,4000.0,-453.0,-320.0,-1240.0
-75.0,-77.0,-963.0,40.0,4000.0,-65.0,-161.0,-1921.0
-193.0,-160.0,-1069.0,-28.0,4000.0,-285.0,-39.0,-1298.0
-250.0,-213.0,-932.0,-40.0,2581.0,-251.0,-14.0,-1065.0
-258.0,-301.0,205.0,-63.0,534.0,-23.0,-47.0,-710.0
-73.0,-343.0,708.0,-77.0,-1064.0,-485.0,-13.0,530.0
19.0,-244.0,415.0,-72.0,-2513.0,-845.0,364.0,798.0
138.0,-188.0,512.0,-93.0,-3456.0,-945.0,667.0,499.0
234.0,-141.0,-171.0,-68.0,-3836.0,-849.0,345.0,1012.0
169.0,-101.0,-255.0,-42.0,-4000.0,-802.0,83.0,695.0
187.0,13.0,-51.0,-61.0,-4000.0,-397.0,529.0,686.0
160.0,55.0,215.0,-38.0,-4000.0,210.0,602.0,725.0
73.0,24.0,546.0,-44.0,-4000.0,506.0,623.0,-130.0
-92.0,87.0,606.0,10.0,-4000.0,449.0,563.0,9.0
-66.0,114.0,728.0,54.0,-4000.0,292.0,457.0,-232.0
27.0,80.0,476.0,10.0,-4000.0,283.0,687.0,-1083.0
14.0,18.0,556.0,-23.0,-4000.0,415.0,765.0,-2611.0
-71.0,69.0,630.0,-6.0,-4000.0,752.0,945.0,-4000.0
-89.0,83.0,775.0,-39.0,-4000.0,1026.0,759.0,-3992.0
69.0,75.0,606.0,-23.0,-4000.0,1462.0,563.0,-3581.0
97.0,56.0,476.0,-34.0,-4000.0,1344.0,576.0,-3734.0
220.0,0.0,311.0,-103.0,-4000.0,1083.0,498.0,-3462.0
145.0,19.0,343.0,-12.0,-4000.0,1009.0,355.0,-2676.0
-12.0,79.0,381.0,-10.0,-4000.0,480.0,380.0,-1257.0
-209.0,162.0,141.0,-116.0,-4000.0,124.0,457.0,255.0
-436.0,136.0,128.0,-152.0,-4000.0,246.0,246.0,176.0
-506.0,91.0,-247.0,-209.0,-4000.0,571.0,56.0,216.0
-354.0,13.0,-354.0,-166.0,-4000.0,392.0,-25.0,308.0
130.0,-62.0,-571.0,-259.0,-4000.0,303.0,8.0,927.0
334.0,-101.0,-694.0,-351.0,-4000.0,641.0,-43.0,1411.0
427.0,-112.0,-248.0,37.0,-4000.0,490.0,-257.0,1501.0
250.0,-53.0,-72.0,352.0,-4000.0,491.0,-393.0,1898.0
122.0,-50.0,-126.0,381.0,-4000.0,210.0,-267.0,1704.0
110.0,-10.0,14.0,209.0,-4000.0,29.0,-75.0,2042.0
65.0,16.0,166.0,-158.0,-4000.0,158.0,-224.0,2118.0
161.0,8.0,153.0,-316.0,-4000.0,98.0,-424.0,2245.0
97.0,2.0,50.0,-332.0,-4000.0,144.0,-211.0,2249.0
47.0,-4.0,-110.0,-318.0,-4000.0,-39.0,35.0,2184.0
-215.0,-23.0,-265.0,-266.0,-4000.0,28.0,-10.0,2248.0
-490.0,1.0,-425.0,-293.0,-2676.0,11.0,1.0,2094.0
-575.0,66.0,-450.0,-284.0,-1820.0,-85.0,197.0,2078.0
-407.0,109.0,-376.0,-72.0,-1607.0,-130.0,812.0,1859.0
-318.0,135.0,-178.0,255.0,-1007.0,-419.0,1825.0,1728.0
-154.0,121.0,-112.0,309.0,260.0,-344.0,1825.0,1403.0
111.0,148.0,-121.0,217.0,1639.0,-116.0,1475.0,1142.0
186.0,290.0,-145.0,272.0,2363.0,17.0,1539.0,890.0
215.0,382.0,-300.0,337.0,2681.0,51.0,858.0,674.0
69.0,335.0,-337.0,472.0,3074.0,-98.0,533.0,595.0
72.0,305.0,-209.0,459.0,3399.0,-327.0,439.0,467.0
59.0,306.0,-104.0,146.0,3464.0,-535.0,123.0,383.0
34.0,227.0,-103.0,-1.0,3346.0,-846.0,148.0,290.0
33.0,15.0,-13.0,33.0,3660.0,-917.0,-72.0,239.0
-27.0,-227.0,-25.0,-214.0,4000.0,-449.0,-135.0,206.0
15.0,-280.0,7.0,-717.0,4000.0,-238.0,177.0,299.0
42.0,-247.0,31.0,-198.0,4000.0,-67.0,259.0,420.0
-21.0,-244.0,10.0,-22.0,4000.0,248.0,283.0,528.0
-21.0,-267.0,77.0,-191.0,4000.0,31.0,441.0,678.0
93.0,-345.0,59.0,109.0,4000.0,-240.0,523.0,853.0
54.0,-266.0,125.0,194.0,4000.0,-325.0,669.0,992.0
-76.0,-166.0,136.0,518.0,4000.0,-466.0,571.0,1057.0
-457.0,-152.0,122.0,87.0,4000.0,-507.0,170.0,1069.0
-1022.0,-181.0,134.0,-226.0,4000.0,-790.0,107.0,1026.0
-966.0,-192.0,141.0,-200.0,4000.0,-964.0,259.0,947.0
100.0,-97.0,293.0,-88.0,4000.0,-926.0,185.0,798.0
994.0,-49.0,309.0,-64.0,4000.0,-810.0,-180.0,634.0
1172.0,-92.0,173.0,-99.0,4000.0,-644.0,-534.0,460.0
1051.0,-200.0,101.0,187.0,4000.0,-745.0,-615.0,317.0
745.0,-171.0,-69.0,193.0,4000.0,-810.0,-542.0,140.0
640.0,38.0,-64.0,467.0,4000.0,-582.0,-666.0,-22.0
342.0,135.0,40.0,431.0,4000.0,-442.0,-811.0,-207.0
49.0,139.0,11.0,431.0,4000.0,-459.0,-737.0,-401.0
-142.0,146.0,43.0,354.0,4000.0,-442.0,-797.0,-604.0
-467.0,152.0,-57.0,132.0,4000.0,-354.0,-941.0,-846.0
-1039.0,111.0,-82.0,316.0,3150.0,-244.0,-1071.0,-1050.0
-896.0,50.0,32.0,583.0,1083.0,-155.0,-1181.0,-1208.0
-73.0,35.0,-14.0,749.0,-1915.0,-32.0,-1136.0,-1390.0
371.0,79.0,-99.0,356.0,-4000.0,68.0,-1136.0,-1515.0
277.0,55.0,-165.0,211.0,-4000.0,142.0,-1178.0,-1615.0
-376.0,91.0,-102.0,386.0,-4000.0,351.0,-1199.0,-1717.0
-370.0,157.0,54.0,453.0,-4000.0,551.0,-1291.0,-1762.0
-79.0,132.0,130.0,382.0,-4000.0,551.0,-1332.0,-1756.0
-128.0,143.0,199.0,18.0,-4000.0,439.0,-1380.0,-1709.0
-153.0,54.0,319.0,-77.0,-4000.0,303.0,-1291.0,-1671.0
351.0,-94.0,446.0,-323.0,-4000.0,171.0,-1271.0,-1612.0
608.0,-202.0,250.0,-848.0,-4000.0,111.0,-1445.0,-1534.0
145.0,-211.0,-47.0,-1044.0,-4000.0,209.0,-1527.0,-1497.0
-331.0,-174.0,-78.0,-1174.0,-4000.0,504.0,-1360.0,-1404.0
-433.0,-82.0,-133.0,-1206.0,-3988.0,888.0,-1173.0,-1256.0
-266.0,55.0,-47.0,-767.0,-3182.0,1214.0,-1422.0,-1143.0
-816.0,102.0,93.0,-373.0,-2222.0,1026.0,-1303.0,-1058.0
-1072.0,215.0,238.0,-157.0,-1573.0,641.0,-992.0,-862.0
-814.0,363.0,337.0,91.0,-2016.0,522.0,-1051.0,-679.0
-1345.0,382.0,317.0,310.0,-2688.0,293.0,-1057.0,-580.0
-1621.0,241.0,145.0,363.0,-3213.0,248.0,-1006.0,-466.0
123.0,67.0,-97.0,209.0,-3066.0,180.0,-771.0,-362.0
1767.0,102.0,-251.0,-109.0,-3327.0,24.0,-515.0,-234.0
1246.0,162.0,-669.0,-523.0,-3066.0,-35.0,-519.0,-153.0
-1521.0,45.0,-781.0,-510.0,-1691.0,-100.0,-403.0,-126.0
-4000.0,111.0,-596.0,-414.0,-1137.0,-146.0,-163.0,-34.0
-2024.0,129.0,-375.0,-393.0,-669.0,-293.0,-130.0,61.0
301.0,-91.0,34.0,-127.0,-203.0,-350.0,23.0,192.0
965.0,-155.0,244.0,-73.0,52.0,-449.0,286.0,322.0
1766.0,-101.0,184.0,-217.0,-33.0,-482.0,563.0,393.0
1429.0,-55.0,164.0,-186.0,-189.0,-442.0,660.0,409.0
2549.0,-91.0,205.0,-103.0,145.0,-362.0,838.0,395.0
3497.0,-150.0,65.0,-122.0,275.0,-281.0,1125.0,401.0
3052.0,-167.0,65.0,-61.0,1405.0,-240.0,1205.0,432.0
2222.0,-247.0,279.0,67.0,2125.0,-287.0,1353.0,438.0
127.0,-271.0,523.0,87.0,2159.0,-482.0,1379.0,467.0
-3140.0,-133.0,541.0,22.0,2376.0,-468.0,1446.0,596.0
-2968.0,45.0,325.0,37.0,2290.0,-472.0,1534.0,719.0
1822.0,52.0,272.0,197.0,2711.0,-393.0,1540.0,751.0
3635.0,-55.0,278.0,283.0,2943.0,-123.0,1539.0,751.0
3508.0,-30.0,217.0,246.0,4000.0,-24.0,1475.0,751.0
2857.0,-8.0,198.0,246.0,4000.0,-62.0,1540.0,741.0
1246.0,58.0,157.0,142.0,4000.0,-113.0,1581.0,745.0
-301.0,76.0,-41.0,22.0,4000.0,-37.0,1534.0,751.0
-1605.0,44.0,-119.0,67.0,4000.0,-52.0,1548.0,727.0
-1472.0,86.0,10.0,139.0,4000.0,-74.0,1463.0,719.0
-1698.0,-15.0,86.0,164.0,3707.0,13.0,1388.0,725.0
-1011.0,8.0,30.0,162.0,3790.0,19.0,1399.0,686.0
-974.0,99.0,-8.0,152.0,4000.0,15.0,1293.0,601.0
-1560.0,173.0,-8.0,144.0,4000.0,-59.0,1280.0,547.0
-712.0,270.0,-51.0,55.0,3682.0,-174.0,1205.0,499.0
-962.0,221.0,-30.0,28.0,3215.0,-240.0,1019.0,404.0
-2761.0,92.0,-40.0,80.0,3085.0,-262.0,974.0,296.0
-2593.0,-62.0,-54.0,81.0,2683.0,-249.0,1267.0,319.0
-580.0,-166.0,-87.0,-1.0,1075.0,-219.0,1640.0,346.0
656.0,-161.0,-160.0,-250.0,-1007.0,-116.0,1202.0,276.0
2028.0,-21.0,-200.0,-332.0,-908.0,-36.0,714.0,226.0
644.0,105.0,-125.0,-73.0,-614.0,-56.0,793.0,221.0
-375.0,85.0,-124.0,122.0,-1333.0,-46.0,749.0,213.0
1557.0,73.0,-137.0,240.0,-2045.0,47.0,521.0,222.0
318.0,91.0,-64.0,252.0,-2389.0,170.0,-363.0,247.0
-1352.0,40.0,-107.0,15.0,-2389.0,406.0,-1397.0,226.0
-2832.0,-63.0,-88.0,-159.0,-2953.0,563.0,-1487.0,177.0
-3282.0,-96.0,-73.0,-122.0,-3197.0,616.0,-946.0,164.0
72.0,-121.0,-45.0,54.0,-3661.0,771.0,-676.0,213.0
1885.0,-260.0,-44.0,146.0,-4000.0,882.0,-1332.0,198.0
3314.0,-334.0,-71.0,122.0,-4000.0,823.0,-1793.0,106.0
4000.0,-255.0,-76.0,136.0,-4000.0,693.0,-1104.0,48.0
1319.0,-297.0,-86.0,40.0,-4000.0,636.0,-222.0,-19.0
-1402.0,-310.0,-99.0,-101.0,-4000.0,563.0,177.0,-93.0
-2061.0,-234.0,-147.0,31.0,-4000.0,542.0,70.0,-161.0
-1947.0,-179.0,-89.0,240.0,-4000.0,536.0,-32.0,-212.0
-1996.0,-19.0,-70.0,410.0,-4000.0,441.0,12.0,-223.0
-1342.0,99.0,-66.0,264.0,-4000.0,380.0,120.0,-187.0
-2486.0,175.0,-65.0,118.0,-4000.0,343.0,213.0,-130.0
-2155.0,25.0,-30.0,116.0,-4000.0,311.0,296.0,-81.0
1240.0,-57.0,8.0,-263.0,-4000.0,201.0,441.0,-80.0
2781.0,-6.0,77.0,-498.0,-4000.0,158.0,283.0,-89.0
3635.0,-30.0,134.0,-540.0,-4000.0,64.0,162.0,-50.0
3041.0,95.0,152.0,-447.0,-4000.0,-41.0,427.0,-34.0
3175.0,221.0,164.0,-10.0,-4000.0,79.0,439.0,21.0
2410.0,392.0,122.0,310.0,-4000.0,205.0,779.0,104.0
110.0,290.0,147.0,785.0,-4000.0,254.0,1019.0,212.0
-490.0,245.0,45.0,1553.0,-4000.0,354.0,339.0,387.0
-909.0,328.0,-9.0,1302.0,-3327.0,402.0,107.0,563.0
-909.0,225.0,12.0,3.0,-1731.0,164.0,278.0,739.0
-2126.0,262.0,-68.0,-782.0,-502.0,13.0,262.0,896.0
-2452.0,200.0,-59.0,-984.0,-199.0,-48.0,211.0,1077.0
-2517.0,34.0,-76.0,-1108.0,570.0,-116.0,40.0,1338.0
-2839.0,-182.0,-52.0,-894.0,1518.0,4.0,-701.0,1573.0
-1947.0,-326.0,-56.0,-571.0,2745.0,-18.0,-1291.0,1727.0
430.0,-391.0,61.0,-421.0,2683.0,-187.0,-1011.0,1769.0
2341.0,-314.0,152.0,-181.0,2842.0,-472.0,-1462.0,1698.0
1450.0,-177.0,-99.0,-165.0,3916.0,-519.0,-2343.0,1501.0
1411.0,-145.0,-204.0,-442.0,3983.0,-501.0,-1918.0,1177.0
2024.0,-169.0,-252.0,-487.0,3679.0,-598.0,-196.0,870.0
3870.0,-118.0,-324.0,-614.0,3476.0,-584.0,477.0,590.0
2536.0,-22.0,-297.0,-620.0,4000.0,-685.0,-428.0,264.0
-90.0,-69.0,-338.0,-414.0,4000.0,-445.0,-555.0,-66.0
-541.0,-15.0,-373.0,-136.0,4000.0,-82.0,261.0,-301.0
-4000.0,41.0,-277.0,111.0,4000.0,-155.0,521.0,-479.0
-4000.0,66.0,-182.0,276.0,4000.0,-247.0,-385.0,-715.0
1885.0,-100.0,-49.0,366.0,4000.0,-78.0,-911.0,-824.0
4000.0,-281.0,178.0,251.0,4000.0,33.0,-412.0,-750.0
4000.0,-358.0,337.0,190.0,4000.0,-52.0,273.0,-750.0
4000.0,-318.0,541.0,77.0,4000.0,-128.0,510.0,-985.0
4000.0,-201.0,792.0,22.0,4000.0,-86.0,183.0,-1330.0
4000.0,-118.0,917.0,203.0,4000.0,-118.0,127.0,-1746.0
4000.0,-2.0,840.0,287.0,4000.0,-224.0,-310.0,-2193.0
3200.0,51.0,364.0,179.0,4000.0,-167.0,-998.0,-2656.0
-4000.0,197.0,121.0,102.0,4000.0,-120.0,-630.0,-2992.0
-4000.0,229.0,246.0,77.0,4000.0,-15.0,986.0,-3007.0
-4000.0,258.0,190.0,63.0,4000.0,51.0,1931.0,-2918.0
-4000.0,176.0,186.0,60.0,4000.0,115.0,1996.0,-2763.0
-4000.0,38.0,61.0,63.0,4000.0,235.0,2291.0,-2617.0
-4000.0,155.0,-107.0,61.0,4000.0,160.0,229.0,-2392.0
4000.0,63.0,-229.0,95.0,4000.0,203.0,-1462.0,-2069.0
4000.0,41.0,-376.0,164.0,3855.0,87.0,-1332.0,-1788.0
4000.0,93.0,-215.0,209.0,2378.0,11.0,-1897.0,-1558.0
-4000.0,21.0,28.0,255.0,1287.0,23.0,-1914.0,-1319.0
-4000.0,233.0,-85.0,255.0,509.0,-358.0,-1718.0,-953.0
-4000.0,328.0,-313.0,290.0,811.0,-385.0,-1445.0,-562.0
-4000.0,282.0,-450.0,310.0,2124.0,-406.0,-182.0,-168.0
-3956.0,131.0,-385.0,276.0,2048.0,-546.0,801.0,120.0
1950.0,-83.0,-188.0,272.0,1204.0,-517.0,246.0,325.0
3330.0,-153.0,-96.0,210.0,737.0,-586.0,105.0,406.0
2857.0,-111.0,-22.0,145.0,1059.0,-546.0,376.0,485.0
2222.0,270.0,-91.0,158.0,1222.0,-532.0,455.0,483.0
1300.0,518.0,-226.0,63.0,1312.0,-423.0,-190.0,339.0
-1081.0,412.0,-229.0,-155.0,896.0,-269.0,-161.0,329.0
-4000.0,316.0,-129.0,-168.0,505.0,-204.0,795.0,281.0
-818.0,326.0,-41.0,-186.0,237.0,-289.0,390.0,216.0
4000.0,235.0,-206.0,-414.0,-343.0,-289.0,-176.0,133.0
4000.0,38.0,-288.0,-546.0,-517.0,-240.0,-363.0,69.0
3378.0,-111.0,-143.0,-326.0,-376.0,-154.0,-483.0,206.0
-1604.0,-236.0,-165.0,-168.0,-142.0,31.0,-657.0,409.0
-3915.0,-172.0,-62.0,-124.0,-313.0,46.0,-601.0,606.0
-4000.0,57.0,236.0,-75.0,-583.0,149.0,-298.0,811.0
-4000.0,256.0,335.0,-167.0,-577.0,261.0,36.0,853.0
-4000.0,120.0,331.0,-72.0,-267.0,384.0,274.0,713.0
-1096.0,-159.0,373.0,-62.0,-225.0,431.0,399.0,634.0
2408.0,-164.0,72.0,-137.0,-319.0,439.0,637.0,556.0
4000.0,-33.0,-312.0,-113.0,-136.0,498.0,856.0,544.0
4000.0,131.0,-237.0,-29.0,-978.0,496.0,1735.0,601.0
4000.0,28.0,-175.0,88.0,-2029.0,538.0,3788.0,662.0
4000.0,-167.0,-596.0,129.0,-2065.0,693.0,4000.0,725.0
4000.0,-135.0,-741.0,496.0,-1653.0,795.0,4000.0,947.0
4000.0,-154.0,-229.0,858.0,-1488.0,608.0,4000.0,1221.0
4000.0,-244.0,12.0,681.0,-1573.0,636.0,1984.0,1334.0
3969.0,-343.0,-18.0,77.0,-1979.0,784.0,-1435.0,1411.0
-990.0,-334.0,-149.0,-265.0,-2611.0,628.0,-4000.0,1467.0
-3164.0,-271.0,-168.0,-381.0,-2806.0,384.0,-4000.0,1411.0
-3701.0,-288.0,-113.0,-479.0,-2860.0,92.0,-4000.0,1308.0
-2096.0,-261.0,-160.0,-488.0,-2337.0,-56.0,-4000.0,1264.0
-2350.0,-84.0,53.0,-417.0,-1534.0,-204.0,-2988.0,1248.0
-2125.0,134.0,42.0,-278.0,-934.0,-293.0,-247.0,1091.0
-1605.0,199.0,-48.0,-276.0,-187.0,-318.0,1723.0,816.0
-2832.0,156.0,89.0,-267.0,40.0,-375.0,1540.0,544.0
-3636.0,200.0,-86.0,-366.0,-673.0,-293.0,172.0,321.0
-3164.0,290.0,-515.0,-527.0,-1528.0,-139.0,424.0,159.0
-1235.0,197.0,-393.0,-549.0,-1649.0,-9.0,602.0,71.0
12.0,48.0,89.0,-372.0,-1849.0,144.0,-290.0,-311.0
892.0,-42.0,288.0,-201.0,-1588.0,144.0,816.0,-679.0
1372.0,-155.0,284.0,-132.0,-1059.0,-123.0,1866.0,-687.0
2518.0,-244.0,89.0,-124.0,-850.0,-261.0,1785.0,-692.0
4000.0,-275.0,-18.0,-110.0,-1059.0,-204.0,1580.0,-798.0
4000.0,-188.0,-48.0,94.0,-2212.0,-313.0,1602.0,-692.0
4000.0,-86.0,35.0,199.0,-3312.0,-232.0,1580.0,-583.0
3739.0,-31.0,128.0,370.0,-3817.0,-127.0,-2223.0,-350.0
986.0,-24.0,213.0,583.0,-3753.0,-284.0,-4000.0,-47.0
-1815.0,-30.0,343.0,459.0,-2999.0,-275.0,-3882.0,-81.0
-3571.0,10.0,318.0,215.0,-1918.0,-358.0,-2817.0,46.0
-4000.0,108.0,385.0,222.0,-1489.0,-452.0,-1961.0,414.0
-4000.0,152.0,541.0,181.0,-2010.0,-469.0,-1271.0,490.0
-4000.0,86.0,630.0,77.0,-3312.0,-419.0,2036.0,450.0
-2875.0,19.0,628.0,124.0,-3923.0,-46.0,4000.0,670.0
-566.0,-7.0,597.0,54.0,-3182.0,217.0,1854.0,580.0
1358.0,40.0,467.0,69.0,-1012.0,273.0,-527.0,189.0
2028.0,131.0,331.0,54.0,575.0,335.0,-500.0,98.0
2922.0,294.0,280.0,99.0,346.0,261.0,-2312.0,111.0
4000.0,443.0,361.0,210.0,-81.0,210.0,-1527.0,3.0
3573.0,341.0,394.0,223.0,-1398.0,168.0,-162.0,-192.0
1735.0,176.0,148.0,132.0,-2187.0,43.0,1118.0,-401.0
789.0,10.0,-96.0,42.0,-1434.0,209.0,1457.0,-549.0
-844.0,-115.0,-338.0,61.0,-283.0,576.0,1353.0,-653.0
-1031.0,-213.0,-511.0,67.0,627.0,748.0,-73.0,-622.0
-1699.0,-272.0,-515.0,122.0,1118.0,449.0,-249.0,-489.0
-2051.0,-314.0,-512.0,102.0,1453.0,346.0,860.0,-193.0
60.0,-392.0,-433.0,83.0,480.0,586.0,-1136.0,-47.0
86.0,-373.0,-393.0,29.0,-1188.0,119.0,-723.0,-39.0
-1642.0,-233.0,-437.0,-74.0,-395.0,-647.0,1825.0,29.0
-889.0,1.0,-454.0,-82.0,1930.0,-1041.0,3813.0,-124.0
-2285.0,248.0,-257.0,-90.0,2085.0,-1062.0,4000.0,-146.0
-4000.0,321.0,-62.0,-100.0,2376.0,-613.0,4000.0,-350.0
-4000.0,327.0,-95.0,-263.0,3916.0,-816.0,4000.0,-443.0
-4000.0,335.0,-22.0,-377.0,3982.0,-1357.0,2631.0,-119.0
-4000.0,282.0,-33.0,-198.0,1855.0,-449.0,-516.0,-20.0
-4000.0,381.0,-77.0,-84.0,-356.0,1098.0,-1120.0,201.0
-4000.0,307.0,-88.0,51.0,-248.0,1799.0,-3013.0,515.0
-4000.0,256.0,-154.0,197.0,1378.0,1352.0,-4000.0,658.0
-4000.0,412.0,-292.0,144.0,3468.0,860.0,-4000.0,532.0
-909.0,282.0,-285.0,72.0,4000.0,408.0,-2594.0,442.0
3330.0,-96.0,-285.0,31.0,2695.0,348.0,-603.0,499.0
4000.0,-418.0,-238.0,30.0,101.0,522.0,-418.0,547.0
4000.0,-367.0,231.0,-74.0,-2450.0,571.0,897.0,615.0
4000.0,-87.0,546.0,-115.0,-2741.0,1018.0,1769.0,606.0
4000.0,21.0,683.0,-82.0,-1072.0,953.0,1670.0,745.0
4000.0,77.0,638.0,-101.0,778.0,941.0,1467.0,882.0
1606.0,254.0,512.0,-108.0,3810.0,888.0,1483.0,1065.0
-737.0,197.0,390.0,-122.0,4000.0,713.0,2973.0,1118.0
-1658.0,-42.0,364.0,-73.0,4000.0,563.0,4000.0,947.0
-1162.0,-278.0,345.0,-60.0,4000.0,394.0,4000.0,677.0
-1788.0,-411.0,160.0,-30.0,4000.0,480.0,2579.0,395.0
-805.0,-404.0,191.0,39.0,4000.0,474.0,481.0,174.0
530.0,-337.0,263.0,44.0,4000.0,449.0,163.0,-131.0
-413.0,-304.0,64.0,39.0,4000.0,490.0,-1054.0,-358.0
-1235.0,-354.0,-385.0,-11.0,4000.0,619.0,-2687.0,-540.0
1246.0,-265.0,-568.0,-54.0,4000.0,933.0,-2295.0,-627.0
1634.0,-228.0,-606.0,-85.0,4000.0,1325.0,-790.0,-730.0
303.0,-379.0,-440.0,-49.0,4000.0,1488.0,400.0,-692.0
135.0,-470.0,-382.0,-20.0,4000.0,1148.0,1019.0,-627.0
-2256.0,-440.0,-450.0,-95.0,4000.0,563.0,1919.0,-675.0
-2888.0,-307.0,-212.0,-78.0,4000.0,-17.0,1418.0,-736.0
-3424.0,-112.0,4.0,-84.0,3863.0,-419.0,-159.0,-797.0
-4000.0,34.0,65.0,-64.0,2842.0,-384.0,-1583.0,-729.0
-2329.0,157.0,311.0,-48.0,1669.0,138.0,-2886.0,-710.0
-744.0,201.0,890.0,-37.0,575.0,576.0,-3261.0,-801.0
495.0,190.0,526.0,6.0,-418.0,104.0,-3455.0,-856.0
2777.0,235.0,-437.0,45.0,-1717.0,32.0,-3727.0,-750.0
2874.0,328.0,-629.0,50.0,-2989.0,220.0,-4000.0,-540.0
1937.0,261.0,-692.0,-48.0,-3833.0,-221.0,-3729.0,-401.0
2276.0,213.0,-434.0,-16.0,-4000.0,-445.0,-3638.0,-424.0
2728.0,134.0,42.0,2.0,-4000.0,-1070.0,-4000.0,-508.0
4000.0,-20.0,95.0,-19.0,-4000.0,-1382.0,-2139.0,-492.0
4000.0,53.0,10.0,-32.0,-4000.0,-945.0,-1031.0,-278.0
4000.0,10.0,23.0,-75.0,-4000.0,-607.0,-1071.0,-43.0
4000.0,-82.0,288.0,-46.0,-4000.0,-517.0,-973.0,123.0
2418.0,-11.0,195.0,-11.0,-4000.0,-362.0,801.0,674.0
399.0,30.0,-138.0,24.0,-4000.0,160.0,2843.0,1047.0
-1750.0,-111.0,-64.0,6.0,-4000.0,70.0,2712.0,851.0
-3099.0,-292.0,28.0,7.0,-4000.0,-463.0,1983.0,465.0
-3372.0,93.0,-3.0,4.0,-4000.0,-1168.0,877.0,-164.0
-3947.0,410.0,-100.0,1.0,-3661.0,-2451.0,71.0,-460.0
-3506.0,647.0,3.0,5.0,-3014.0,-3038.0,-1032.0,-512.0
-2761.0,1843.0,402.0,-36.0,-2472.0,-3494.0,-1796.0,-659.0
-2611.0,2025.0,663.0,-14.0,-2318.0,-3925.0,-2353.0,-555.0
-1837.0,1243.0,345.0,50.0,-2122.0,-3749.0,-1702.0,-679.0
473.0,696.0,-146.0,134.0,-1672.0,-3387.0,-410.0,-789.0
1875.0,374.0,-280.0,140.0,-1369.0,-2608.0,539.0,-483.0
2331.0,1077.0,-552.0,124.0,-973.0,-1850.0,1540.0,69.0
1411.0,-299.0,-1321.0,115.0,-469.0,-1047.0,1704.0,634.0
245.0,-2794.0,-1214.0,48.0,-227.0,-485.0,1993.0,1053.0
322.0,-2875.0,450.0,32.0,-263.0,-266.0,1866.0,1541.0
640.0,-2928.0,1249.0,3.0,-476.0,-116.0,1670.0,1924.0
1572.0,-2423.0,903.0,10.0,-476.0,-148.0,1996.0,2042.0
1085.0,-1350.0,376.0,3.0,-454.0,-183.0,2102.0,1818.0
-234.0,-404.0,1.0,-4.0,-473.0,-317.0,2101.0,1467.0
-649.0,241.0,-115.0,27.0,-977.0,-445.0,2444.0,1272.0
-1996.0,120.0,-288.0,-21.0,-1737.0,-597.0,2579.0,1112.0
-2545.0,1512.0,-203.0,-119.0,-1953.0,-651.0,2102.0,831.0
-2628.0,4000.0,59.0,-250.0,-2676.0,-685.0,1996.0,716.0
-3410.0,3879.0,476.0,-293.0,-4000.0,-663.0,2321.0,597.0
-3376.0,2039.0,379.0,-216.0,-4000.0,-581.0,2631.0,426.0
-3009.0,2997.0,-188.0,-100.0,-4000.0,-435.0,2696.0,264.0
-2505.0,2013.0,-814.0,39.0,-4000.0,-255.0,2309.0,-116.0
-1105.0,-1785.0,-1398.0,27.0,-4000.0,-224.0,2048.0,-718.0
863.0,-2668.0,-1134.0,-50.0,-4000.0,-186.0,2112.0,-1271.0
1456.0,-2241.0,-320.0,-84.0,-4000.0,-261.0,1667.0,-1534.0
1885.0,-2306.0,506.0,-97.0,-4000.0,-216.0,1510.0,-1449.0
2144.0,-163.0,890.0,-110.0,-4000.0,107.0,1444.0,-908.0
1698.0,2154.0,840.0,-148.0,-2692.0,480.0,1248.0,44.0
1319.0,2403.0,728.0,-113.0,-1174.0,537.0,1280.0,1382.0
908.0,2299.0,439.0,-75.0,166.0,406.0,1280.0,2348.0
1173.0,2491.0,131.0,-67.0,1905.0,425.0,1418.0,2369.0
1108.0,3441.0,-144.0,-45.0,4000.0,228.0,989.0,1727.0
825.0,2658.0,122.0,-39.0,4000.0,-97.0,933.0,808.0
701.0,95.0,720.0,-33.0,4000.0,-489.0,1214.0,225.0
269.0,-2269.0,606.0,34.0,4000.0,-1183.0,1410.0,-93.0
-66.0,-4000.0,130.0,116.0,4000.0,-1883.0,2036.0,-671.0
12.0,-4000.0,-308.0,144.0,4000.0,-650.0,1453.0,-1959.0
72.0,-4000.0,-585.0,111.0,4000.0,4000.0,795.0,-3610.0
346.0,-4000.0,-559.0,84.0,4000.0,4000.0,816.0,-4000.0
495.0,319.0,-532.0,104.0,4000.0,4000.0,1119.0,-3516.0
167.0,4000.0,-132.0,77.0,4000.0,4000.0,1353.0,-2941.0
310.0,3879.0,476.0,68.0,4000.0,4000.0,677.0,-2812.0
447.0,2407.0,787.0,22.0,4000.0,4000.0,164.0,-1970.0
346.0,4000.0,699.0,16.0,4000.0,4000.0,-408.0,-1626.0
-292.0,4000.0,345.0,16.0,4000.0,4000.0,-89.0,-2983.0
-830.0,2352.0,-215.0,8.0,4000.0,3036.0,268.0,-3178.0
-741.0,1843.0,-519.0,13.0,3772.0,1409.0,-697.0,-2876.0
-540.0,-822.0,-609.0,-34.0,1128.0,-66.0,-989.0,-3154.0
-392.0,1618.0,-951.0,-28.0,-934.0,-1737.0,-1184.0,-2415.0
-284.0,4000.0,-971.0,-49.0,-3083.0,-2949.0,-1317.0,-1540.0
-27.0,3181.0,-651.0,-125.0,-4000.0,-3698.0,-1488.0,-1083.0
-42.0,2556.0,-470.0,-167.0,-4000.0,-3913.0,-2610.0,-165.0
136.0,2608.0,-698.0,-157.0,-4000.0,-3763.0,-3065.0,-492.0
524.0,-4000.0,-804.0,-195.0,-4000.0,-3657.0,-3246.0,-993.0
509.0,-4000.0,-633.0,-163.0,-4000.0,-3453.0,-4000.0,87.0
422.0,-4000.0,-116.0,-40.0,-4000.0,-3193.0,-4000.0,1045.0
260.0,-4000.0,606.0,-28.0,-4000.0,-2919.0,-4000.0,3067.0
28.0,-4000.0,846.0,10.0,-4000.0,-2397.0,-4000.0,4000.0
51.0,-4000.0,1217.0,23.0,-4000.0,-1880.0,-4000.0,3853.0
428.0,-4000.0,1770.0,-28.0,-4000.0,-1664.0,-4000.0,3719.0
382.0,-4000.0,1739.0,-47.0,-4000.0,-1330.0,-4000.0,2357.0
177.0,-736.0,1068.0,-74.0,-4000.0,-1186.0,-4000.0,1399.0
408.0,2138.0,402.0,-94.0,-4000.0,-1069.0,-4000.0,1476.0
784.0,4000.0,-143.0,-72.0,-4000.0,-855.0,-4000.0,2550.0
863.0,4000.0,-389.0,-84.0,-4000.0,-541.0,-3687.0,3393.0
269.0,3764.0,-473.0,-64.0,-4000.0,-119.0,-3326.0,3209.0
-158.0,2025.0,-612.0,11.0,-4000.0,229.0,-3050.0,2367.0
-101.0,-2288.0,-645.0,102.0,-4000.0,597.0,-2549.0,1012.0
1.0,-4000.0,-547.0,141.0,-4000.0,853.0,-1991.0,-993.0
-14.0,-4000.0,-454.0,149.0,-4000.0,967.0,-1718.0,-1453.0
-168.0,-1025.0,-625.0,142.0,-4000.0,1033.0,-1397.0,-48.0
-166.0,4000.0,-696.0,124.0,-4000.0,858.0,-849.0,921.0
-317.0,4000.0,-759.0,163.0,-4000.0,801.0,-382.0,1977.0
-457.0,4000.0,-627.0,199.0,-4000.0,860.0,-175.0,3014.0
-386.0,4000.0,-358.0,187.0,-4000.0,811.0,149.0,3275.0
-630.0,566.0,-120.0,120.0,-4000.0,987.0,486.0,2416.0
-549.0,-4000.0,124.0,50.0,-4000.0,941.0,687.0,1728.0
-348.0,-4000.0,337.0,62.0,-4000.0,660.0,875.0,1989.0
-176.0,-4000.0,476.0,51.0,-4000.0,213.0,1135.0,1532.0
-160.0,-1546.0,402.0,-14.0,-4000.0,97.0,1259.0,344.0
-339.0,4000.0,290.0,-62.0,-3197.0,-32.0,1280.0,6.0
44.0,4000.0,218.0,-90.0,-2094.0,-76.0,1390.0,-284.0
412.0,4000.0,205.0,-101.0,-738.0,349.0,1280.0,-562.0
568.0,-89.0,236.0,-69.0,876.0,476.0,1602.0,-378.0
495.0,-4000.0,331.0,-42.0,2354.0,432.0,2049.0,-479.0
-89.0,-4000.0,317.0,-69.0,3727.0,283.0,2061.0,-584.0
-901.0,-4000.0,270.0,-42.0,4000.0,200.0,2037.0,-649.0
-1235.0,-578.0,256.0,-37.0,4000.0,-94.0,2058.0,-411.0
-1038.0,4000.0,207.0,-76.0,4000.0,-283.0,2255.0,-39.0
-457.0,4000.0,92.0,-81.0,4000.0,-383.0,2486.0,96.0
-51.0,717.0,48.0,-39.0,4000.0,-541.0,2504.0,-435.0
277.0,-2288.0,20.0,-42.0,4000.0,-743.0,2362.0,-1126.0
530.0,-2477.0,-33.0,-75.0,4000.0,-1121.0,2357.0,-1259.0
392.0,-265.0,-2.0,36.0,4000.0,-1265.0,2449.0,-1274.0
465.0,4000.0,-1.0,261.0,3853.0,-1396.0,2422.0,-1135.0
346.0,4000.0,150.0,280.0,2813.0,-1422.0,2321.0,-928.0
-15.0,4000.0,276.0,-48.0,2165.0,-1526.0,2256.0,-856.0
-165.0,4000.0,254.0,-153.0,1853.0,-1699.0,2178.0,-859.0
12.0,-3769.0,190.0,-130.0,1918.0,-1960.0,1996.0,-1114.0
102.0,-4000.0,59.0,-173.0,2165.0,-2167.0,1996.0,-1298.0
-296.0,-4000.0,-46.0,-10.0,2308.0,-2222.0,1919.0,-1445.0
-844.0,-3717.0,-60.0,77.0,1898.0,-2338.0,1605.0,-1449.0
-1011.0,-3011.0,-104.0,38.0,953.0,-2463.0,1345.0,-1339.0
-681.0,-1285.0,-200.0,-206.0,275.0,-2647.0,1064.0,-1449.0
-183.0,2025.0,-182.0,-273.0,-185.0,-2815.0,881.0,-1438.0
530.0,3452.0,-133.0,-188.0,-327.0,-3181.0,461.0,-1461.0
905.0,4000.0,-234.0,-226.0,209.0,-3193.0,143.0,-1324.0
847.0,4000.0,-408.0,-250.0,945.0,-2791.0,742.0,-693.0
509.0,4000.0,-371.0,-189.0,1213.0,-2274.0,909.0,128.0
60.0,4000.0,-257.0,89.0,758.0,-1686.0,290.0,863.0
47.0,4000.0,-158.0,354.0,-968.0,-1005.0,216.0,1586.0
-160.0,-2471.0,-34.0,400.0,-4000.0,-195.0,208.0,2371.0
-322.0,-4000.0,-23.0,6.0,-4000.0,406.0,-407.0,3120.0
-296.0,-4000.0,-8.0,-243.0,-4000.0,766.0,-929.0,3898.0
-470.0,-4000.0,-9.0,-301.0,-1918.0,967.0,-989.0,4000.0
-508.0,-4000.0,-35.0,-362.0,801.0,1270.0,-573.0,4000.0
-476.0,-4000.0,15.0,-249.0,3397.0,961.0,616.0,4000.0
-240.0,-4000.0,89.0,-196.0,4000.0,613.0,1223.0,4000.0
-64.0,-4000.0,93.0,-153.0,4000.0,1344.0,1064.0,3275.0
-43.0,-810.0,46.0,-130.0,4000.0,1907.0,1084.0,2119.0
66.0,3014.0,84.0,80.0,4000.0,2450.0,576.0,890.0
366.0,4000.0,121.0,131.0,4000.0,2775.0,209.0,-599.0
583.0,4000.0,88.0,9.0,4000.0,2254.0,-598.0,-1924.0
406.0,3535.0,-4.0,18.0,4000.0,1722.0,-678.0,-2995.0
328.0,3210.0,-3.0,29.0,4000.0,1124.0,673.0,-3661.0
250.0,2624.0,93.0,77.0,4000.0,641.0,962.0,-4000.0
238.0,2624.0,142.0,99.0,4000.0,380.0,619.0,-4000.0
243.0,2403.0,179.0,99.0,4000.0,380.0,-320.0,-4000.0
198.0,2421.0,89.0,116.0,4000.0,1018.0,-1187.0,-4000.0
220.0,2209.0,67.0,122.0,4000.0,1994.0,-1572.0,-4000.0
117.0,2103.0,89.0,46.0,4000.0,3131.0,-1097.0,-4000.0
45.0,2364.0,52.0,-34.0,4000.0,3770.0,228.0,-4000.0
31.0,1896.0,55.0,62.0,4000.0,3786.0,1190.0,-4000.0
-44.0,1120.0,68.0,30.0,4000.0,3214.0,1735.0,-3450.0
-128.0,705.0,67.0,-123.0,4000.0,2254.0,1463.0,-1970.0
-66.0,158.0,30.0,-211.0,4000.0,1201.0,889.0,-1050.0
137.0,-181.0,-21.0,-206.0,4000.0,-277.0,348.0,-431.0
95.0,-438.0,-88.0,-169.0,4000.0,-1200.0,82.0,-254.0
77.0,-822.0,-143.0,-239.0,3493.0,-1774.0,-139.0,-168.0
66.0,-1005.0,-153.0,-153.0,3102.0,-1912.0,-294.0,-279.0
-201.0,-1203.0,-95.0,37.0,3020.0,-1302.0,-513.0,-23.0
-150.0,-1135.0,-85.0,129.0,2578.0,-1172.0,-849.0,935.0
-75.0,-1095.0,-31.0,64.0,2189.0,-985.0,-876.0,1660.0
-28.0,-1247.0,-22.0,-6.0,1853.0,-685.0,-1011.0,1924.0
55.0,-1285.0,-139.0,197.0,1352.0,-513.0,-781.0,2310.0
20.0,-1160.0,-218.0,271.0,953.0,-278.0,-587.0,2563.0
49.0,-1076.0,-357.0,50.0,771.0,-352.0,-743.0,2563.0
-83.0,-1212.0,-320.0,-5.0,484.0,-383.0,-1128.0,2572.0
-288.0,-1283.0,-193.0,129.0,261.0,-221.0,-1383.0,2237.0
-392.0,-1220.0,-204.0,272.0,3.0,119.0,-1445.0,1502.0
-415.0,-1095.0,-124.0,370.0,-398.0,427.0,-1551.0,812.0
-655.0,-1138.0,-98.0,341.0,-547.0,466.0,-1332.0,190.0
-871.0,-1025.0,-233.0,240.0,-421.0,498.0,-1199.0,-7.0
-628.0,-830.0,-344.0,303.0,-883.0,608.0,-1249.0,564.0
-166.0,-761.0,-405.0,425.0,-1442.0,636.0,-1116.0,1177.0
89.0,-631.0,-425.0,324.0,-1849.0,746.0,-565.0,1716.0
-88.0,-602.0,-368.0,290.0,-2753.0,766.0,-5.0,2237.0
-476.0,-604.0,-320.0,223.0,-3669.0,831.0,449.0,2689.0
-654.0,-761.0,-158.0,51.0,-4000.0,868.0,954.0,3328.0
-750.0,-997.0,136.0,-50.0,-4000.0,771.0,759.0,3460.0
-763.0,-1181.0,401.0,-69.0,-4000.0,734.0,-536.0,3662.0
-589.0,-1220.0,556.0,19.0,-4000.0,576.0,-1422.0,4000.0
-1141.0,-1285.0,415.0,68.0,-4000.0,413.0,-790.0,4000.0
-1084.0,-1253.0,299.0,128.0,-4000.0,249.0,236.0,4000.0
-448.0,-1073.0,345.0,144.0,-3917.0,-10.0,919.0,4000.0
-474.0,-1005.0,455.0,50.0,-3060.0,-244.0,1248.0,4000.0
566.0,-791.0,512.0,31.0,-2870.0,-260.0,1164.0,4000.0
1634.0,-650.0,450.0,51.0,-3521.0,-87.0,999.0,4000.0
2483.0,-432.0,476.0,65.0,-3917.0,25.0,1228.0,4000.0
2679.0,-129.0,349.0,74.0,-3898.0,105.0,1443.0,4000.0
1594.0,51.0,218.0,30.0,-3642.0,183.0,1033.0,4000.0
1348.0,134.0,385.0,-19.0,-3510.0,169.0,903.0,4000.0
1216.0,209.0,225.0,-50.0,-3119.0,90.0,1184.0,4000.0
1310.0,392.0,-70.0,-82.0,-2484.0,-83.0,680.0,3198.0
1702.0,485.0,-139.0,-116.0,-2729.0,-232.0,-252.0,2093.0
1085.0,566.0,-209.0,-141.0,-2688.0,-313.0,-385.0,1122.0
-319.0,607.0,-291.0,-131.0,-2578.0,-416.0,348.0,418.0
-1261.0,663.0,-519.0,-168.0,-3517.0,-521.0,603.0,-476.0
-1851.0,711.0,-698.0,-239.0,-4000.0,-555.0,210.0,-1365.0
-1950.0,758.0,-513.0,-253.0,-4000.0,-480.0,102.0,-1959.0
-1288.0,854.0,-347.0,-273.0,-4000.0,-406.0,470.0,-2147.0
-802.0,861.0,-305.0,-351.0,-4000.0,-377.0,875.0,-1808.0
266.0,876.0,-178.0,-409.0,-4000.0,-314.0,867.0,-824.0
1311.0,867.0,-129.0,-393.0,-2105.0,-253.0,857.0,-415.0
1905.0,849.0,-298.0,-401.0,3541.0,-182.0,759.0,-1083.0
1671.0,847.0,-241.0,-401.0,4000.0,-104.0,368.0,-2069.0
543.0,862.0,-73.0,-411.0,4000.0,-87.0,-51.0,-3935.0
-1031.0,889.0,-112.0,-417.0,4000.0,-76.0,77.0,-4000.0
-3205.0,855.0,-73.0,-416.0,4000.0,39.0,9.0,-4000.0
-4000.0,794.0,-45.0,-443.0,4000.0,86.0,-607.0,-4000.0
-4000.0,882.0,-9.0,-429.0,4000.0,-23.0,-1076.0,-4000.0
-2188.0,1006.0,-1.0,-433.0,4000.0,-211.0,-1377.0,-4000.0
1246.0,1051.0,53.0,-414.0,4000.0,-462.0,-1423.0,-4000.0
4000.0,985.0,165.0,-381.0,4000.0,-606.0,-1600.0,-4000.0
4000.0,836.0,195.0,-343.0,2378.0,-706.0,-2028.0,-4000.0
4000.0,794.0,187.0,-284.0,744.0,-901.0,-2394.0,-4000.0
2549.0,722.0,162.0,-224.0,3020.0,-991.0,-2355.0,-4000.0
627.0,681.0,241.0,-167.0,4000.0,-807.0,-2302.0,-4000.0
-323.0,672.0,280.0,-139.0,4000.0,-480.0,-2464.0,-4000.0
-437.0,621.0,331.0,-79.0,4000.0,-464.0,-2317.0,-4000.0
-767.0,566.0,371.0,-54.0,2374.0,-482.0,-2094.0,-4000.0
-1534.0,530.0,301.0,-29.0,-1953.0,-441.0,-1944.0,-3688.0
-1619.0,443.0,96.0,-6.0,-4000.0,-575.0,-1718.0,-2800.0
-1931.0,306.0,-293.0,10.0,-4000.0,-716.0,-1572.0,-2322.0
-1707.0,199.0,-281.0,95.0,-4000.0,-676.0,-1503.0,-2309.0
-1300.0,24.0,-48.0,122.0,-4000.0,-293.0,-1383.0,-2035.0
-1235.0,-109.0,-257.0,134.0,-4000.0,-44.0,-1382.0,-1860.0
-1298.0,-183.0,-281.0,170.0,-4000.0,183.0,-1514.0,-2259.0
-2436.0,-207.0,172.0,207.0,-4000.0,185.0,-1819.0,-2872.0
-3541.0,-176.0,345.0,221.0,-4000.0,-157.0,-2056.0,-4000.0
-2517.0,-166.0,384.0,232.0,-4000.0,-159.0,-946.0,-4000.0
-1039.0,-261.0,540.0,305.0,-4000.0,-95.0,1149.0,-4000.0
321.0,-352.0,465.0,506.0,-4000.0,-48.0,2505.0,-4000.0
1423.0,-435.0,361.0,756.0,-4000.0,158.0,3268.0,-4000.0
-16.0,-546.0,253.0,503.0,-4000.0,667.0,3216.0,-2617.0
-1430.0,-602.0,170.0,127.0,-4000.0,1118.0,1316.0,-730.0
-1218.0,-640.0,114.0,37.0,-4000.0,-184.0,-298.0,1476.0
-2126.0,-604.0,52.0,-57.0,-4000.0,-1585.0,-227.0,3782.0
-4000.0,-585.0,-66.0,50.0,-1508.0,-1304.0,930.0,4000.0
-4000.0,-570.0,-98.0,134.0,794.0,-1316.0,2444.0,4000.0
-979.0,-570.0,16.0,134.0,1898.0,-1005.0,2908.0,4000.0
2781.0,-491.0,64.0,84.0,2254.0,-337.0,2307.0,4000.0
4000.0,-440.0,11.0,116.0,2578.0,197.0,954.0,4000.0
4000.0,-456.0,-115.0,236.0,3838.0,866.0,-190.0,4000.0
4000.0,-334.0,-512.0,220.0,4000.0,817.0,-35.0,4000.0
4000.0,-264.0,-1041.0,170.0,4000.0,179.0,1645.0,4000.0
4000.0,-118.0,-906.0,81.0,4000.0,339.0,3789.0,4000.0
-396.0,58.0,-841.0,157.0,3688.0,563.0,3917.0,4000.0
-3205.0,223.0,-383.0,182.0,3334.0,-474.0,2973.0,4000.0
-1039.0,355.0,775.0,185.0,3281.0,-532.0,2255.0,4000.0
1254.0,412.0,937.0,187.0,2383.0,-32.0,1856.0,4000.0
2939.0,420.0,953.0,134.0,1340.0,-132.0,1967.0,4000.0
3573.0,309.0,598.0,129.0,719.0,-8.0,1919.0,4000.0
1181.0,149.0,248.0,126.0,287.0,-25.0,2442.0,4000.0
-1567.0,22.0,299.0,97.0,-547.0,27.0,1640.0,4000.0
-3140.0,-118.0,160.0,35.0,-1190.0,155.0,-1043.0,4000.0
-4000.0,-273.0,-25.0,-49.0,-2419.0,134.0,-2211.0,3831.0
-4000.0,-343.0,-473.0,-83.0,-2341.0,86.0,-2549.0,3144.0
-2682.0,-426.0,-538.0,-86.0,-2170.0,-84.0,-3255.0,2118.0
-1231.0,-467.0,-617.0,-103.0,-3001.0,-226.0,-3510.0,1402.0
-1233.0,-494.0,-617.0,-32.0,-1424.0,-285.0,-3913.0,783.0
-828.0,-546.0,-393.0,15.0,-419.0,-144.0,-3196.0,-370.0
-1025.0,-519.0,-450.0,10.0,-84.0,110.0,-1851.0,-1615.0
-865.0,-513.0,-433.0,-94.0,558.0,286.0,-2495.0,-2824.0
-1039.0,-497.0,-218.0,-152.0,1409.0,358.0,-3837.0,-4000.0
-958.0,-556.0,-132.0,-136.0,2113.0,433.0,-4000.0,-4000.0
-1039.0,-558.0,-143.0,-121.0,2165.0,343.0,-2471.0,-4000.0
-889.0,-476.0,-113.0,-66.0,2363.0,16.0,-1136.0,-4000.0
-873.0,-440.0,-133.0,-46.0,2189.0,10.0,-1397.0,-4000.0
-1065.0,-356.0,-57.0,-30.0,2556.0,283.0,-680.0,-4000.0
-896.0,-328.0,89.0,-37.0,2451.0,158.0,995.0,-4000.0
-710.0,-273.0,190.0,-37.0,1824.0,246.0,2309.0,-4000.0
-901.0,-215.0,253.0,-39.0,2178.0,725.0,3009.0,-2941.0
-757.0,-199.0,533.0,-25.0,3541.0,660.0,3477.0,-366.0
-291.0,-155.0,598.0,-78.0,3733.0,628.0,4000.0,2313.0
-321.0,-86.0,400.0,-114.0,3215.0,433.0,4000.0,4000.0
-301.0,-22.0,272.0,-81.0,3772.0,636.0,4000.0,4000.0
-262.0,22.0,88.0,-60.0,4000.0,902.0,4000.0,4000.0
-119.0,83.0,30.0,-45.0,4000.0,506.0,4000.0,4000.0
-16.0,140.0,-40.0,-12.0,3085.0,1018.0,3990.0,4000.0
15.0,182.0,-15.0,54.0,1201.0,1344.0,3477.0,4000.0
82.0,225.0,16.0,66.0,-1833.0,1009.0,2582.0,4000.0
107.0,270.0,27.0,30.0,-4000.0,953.0,1996.0,4000.0
150.0,290.0,89.0,-28.0,-4000.0,1124.0,1396.0,4000.0
220.0,321.0,107.0,-61.0,-4000.0,480.0,791.0,4000.0
293.0,347.0,86.0,-104.0,-4000.0,-867.0,687.0,4000.0
248.0,355.0,111.0,-110.0,-4000.0,-104.0,-163.0,2290.0
268.0,333.0,230.0,-31.0,-4000.0,758.0,-513.0,228.0
298.0,327.0,217.0,-70.0,888.0,-482.0,158.0,-1375.0
277.0,294.0,150.0,-149.0,4000.0,-152.0,25.0,-3007.0
269.0,279.0,-28.0,-228.0,4000.0,-289.0,-144.0,-4000.0
257.0,313.0,-138.0,-250.0,4000.0,-637.0,-680.0,-4000.0
198.0,263.0,-145.0,-220.0,4000.0,-297.0,-1071.0,-4000.0
82.0,179.0,-123.0,-208.0,4000.0,-568.0,-1291.0,-4000.0
-25.0,148.0,-135.0,-163.0,4000.0,-238.0,-1813.0,-4000.0
25.0,176.0,-239.0,-155.0,4000.0,-384.0,-1851.0,-4000.0
183.0,197.0,-283.0,-112.0,4000.0,-208.0,-2269.0,-4000.0
235.0,172.0,-403.0,-118.0,4000.0,-204.0,-2302.0,-4000.0
260.0,157.0,-463.0,-111.0,4000.0,-110.0,-2158.0,-4000.0
166.0,132.0,-328.0,-51.0,4000.0,217.0,-2988.0,-4000.0
45.0,111.0,-141.0,-75.0,4000.0,441.0,-3181.0,-4000.0
37.0,111.0,-155.0,-95.0,3679.0,746.0,-2675.0,-4000.0
147.0,99.0,-298.0,-107.0,944.0,713.0,-2714.0,-3331.0
202.0,77.0,-318.0,-49.0,-1589.0,165.0,-2793.0,-1540.0
155.0,99.0,-371.0,13.0,-3898.0,-600.0,-3455.0,-166.0
79.0,78.0,-252.0,-93.0,-4000.0,-672.0,-2793.0,1372.0
74.0,98.0,-2.0,-284.0,-4000.0,-403.0,-346.0,2484.0
204.0,118.0,28.0,-357.0,-4000.0,747.0,368.0,2937.0
187.0,51.0,41.0,-336.0,-4000.0,1482.0,-20.0,3326.0
56.0,-47.0,120.0,-186.0,-4000.0,837.0,-587.0,3096.0
-170.0,-156.0,122.0,-48.0,-4000.0,164.0,-989.0,2742.0
-241.0,-73.0,55.0,-66.0,-4000.0,273.0,-570.0,2225.0
-142.0,-30.0,115.0,120.0,-4000.0,-391.0,-581.0,1574.0
-135.0,-66.0,191.0,199.0,-4000.0,33.0,-159.0,973.0
-78.0,-47.0,178.0,179.0,-4000.0,858.0,246.0,76.0
23.0,-54.0,181.0,168.0,-4000.0,22.0,-39.0,-711.0
121.0,-34.0,122.0,85.0,-4000.0,394.0,336.0,-1298.0
208.0,-7.0,149.0,234.0,-4000.0,67.0,441.0,-1735.0
277.0,9.0,123.0,418.0,-3001.0,-59.0,199.0,-1856.0
281.0,-12.0,121.0,234.0,-1491.0,-128.0,160.0,-1697.0
277.0,10.0,125.0,-147.0,-928.0,-277.0,-228.0,-1671.0
186.0,16.0,99.0,-194.0,-2160.0,46.0,-920.0,-1658.0
43.0,-50.0,138.0,-237.0,-4000.0,-338.0,-1588.0,-1558.0
-35.0,-95.0,106.0,-167.0,-4000.0,-391.0,-1572.0,-1404.0
-122.0,-100.0,85.0,-141.0,-4000.0,-615.0,-555.0,-1180.0
-177.0,-115.0,23.0,-238.0,-4000.0,-550.0,702.0,-856.0
-308.0,-140.0,4.0,-23.0,-4000.0,-620.0,832.0,-466.0
-331.0,-112.0,18.0,207.0,-4000.0,-597.0,714.0,-286.0
-145.0,-104.0,10.0,381.0,-4000.0,-468.0,2061.0,-3.0
-361.0,-69.0,31.0,298.0,-4000.0,-354.0,2944.0,242.0
-1063.0,-44.0,38.0,162.0,-4000.0,-169.0,2452.0,369.0
-844.0,-95.0,83.0,199.0,-4000.0,-385.0,1971.0,491.0
123.0,-101.0,52.0,164.0,-4000.0,-403.0,1092.0,645.0
530.0,-114.0,6.0,142.0,-4000.0,-423.0,234.0,876.0
668.0,-104.0,-11.0,75.0,-4000.0,-362.0,539.0,1085.0
-396.0,-94.0,-57.0,-47.0,-4000.0,-240.0,1149.0,1329.0
-1410.0,-137.0,-129.0,-106.0,-4000.0,-277.0,1013.0,1532.0
-254.0,-137.0,-194.0,-120.0,-4000.0,-362.0,420.0,1660.0
530.0,-134.0,-257.0,-124.0,-4000.0,-354.0,-94.0,1724.0
133.0,-125.0,-233.0,-136.0,-4000.0,-221.0,12.0,1763.0
-1296.0,-144.0,-206.0,-113.0,-4000.0,-167.0,15.0,1688.0
-1560.0,-131.0,-178.0,-112.0,-2953.0,-158.0,-202.0,1598.0
1116.0,-81.0,-5.0,-99.0,-1012.0,-67.0,-420.0,1527.0
3182.0,-107.0,35.0,-161.0,550.0,3.0,-666.0,1346.0
4000.0,-141.0,79.0,-170.0,3476.0,-3.0,-717.0,1142.0
3508.0,-146.0,148.0,-107.0,4000.0,22.0,-811.0,955.0
1169.0,-87.0,73.0,-68.0,4000.0,42.0,-986.0,786.0
-784.0,-47.0,-30.0,-25.0,4000.0,75.0,-861.0,652.0
-2283.0,5.0,-165.0,-4.0,4000.0,143.0,-672.0,609.0
-2031.0,68.0,-223.0,10.0,4000.0,235.0,-792.0,503.0
-143.0,36.0,-122.0,8.0,4000.0,197.0,-664.0,536.0
827.0,79.0,-27.0,1.0,4000.0,115.0,-522.0,677.0
1020.0,144.0,85.0,84.0,4000.0,67.0,-224.0,825.0
566.0,145.0,172.0,134.0,4000.0,-4.0,120.0,947.0
-78.0,189.0,158.0,74.0,4000.0,-53.0,41.0,991.0
-470.0,195.0,231.0,69.0,4000.0,-92.0,75.0,978.0
-641.0,142.0,219.0,73.0,4000.0,-47.0,119.0,881.0
-641.0,124.0,180.0,95.0,4000.0,86.0,120.0,811.0
-545.0,102.0,118.0,101.0,4000.0,110.0,27.0,760.0
-501.0,112.0,98.0,57.0,4000.0,63.0,-88.0,719.0
-691.0,102.0,170.0,30.0,4000.0,17.0,-340.0,645.0
-730.0,70.0,187.0,-20.0,4000.0,-7.0,-375.0,606.0
-566.0,37.0,205.0,-61.0,4000.0,136.0,-318.0,522.0
-309.0,-13.0,112.0,-92.0,4000.0,206.0,-320.0,344.0
-366.0,-8.0,96.0,-168.0,4000.0,244.0,-266.0,190.0
-361.0,-19.0,72.0,-185.0,4000.0,237.0,-363.0,-17.0
-341.0,-20.0,14.0,-164.0,4000.0,126.0,-320.0,-321.0
-277.0,-12.0,-29.0,-245.0,4000.0,20.0,-267.0,-665.0
-6.0,66.0,-129.0,-291.0,4000.0,-4.0,-267.0,-1018.0
97.0,99.0,-190.0,-316.0,4000.0,36.0,-192.0,-1365.0
143.0,58.0,-192.0,-214.0,3989.0,38.0,-68.0,-1666.0
142.0,20.0,-114.0,-123.0,3916.0,66.0,-82.0,-1860.0
100.0,-5.0,-84.0,-110.0,3916.0,-23.0,-122.0,-2022.0
10.0,8.0,-88.0,-66.0,4000.0,-17.0,-267.0,-2164.0
-116.0,-40.0,-71.0,56.0,4000.0,81.0,-397.0,-2256.0
-163.0,-11.0,-73.0,133.0,3790.0,141.0,168.0,-2186.0
-103.0,38.0,-64.0,244.0,3215.0,167.0,333.0,-1921.0
-60.0,40.0,-111.0,465.0,2513.0,119.0,-469.0,-1514.0
-11.0,10.0,-104.0,467.0,2308.0,254.0,-613.0,-928.0
79.0,-4.0,-80.0,377.0,2630.0,392.0,-436.0,-66.0
109.0,69.0,-67.0,583.0,3127.0,441.0,-94.0,591.0
103.0,64.0,-21.0,838.0,3399.0,406.0,-16.0,947.0
113.0,63.0,15.0,577.0,3150.0,374.0,-781.0,1319.0
180.0,71.0,40.0,93.0,2940.0,408.0,-1006.0,1533.0
267.0,98.0,16.0,-165.0,1983.0,355.0,-941.0,1727.0
285.0,111.0,36.0,-232.0,1091.0,368.0,-923.0,1793.0
269.0,98.0,42.0,-232.0,1213.0,427.0,-697.0,1792.0
243.0,82.0,10.0,-293.0,1898.0,461.0,-1291.0,1532.0
251.0,87.0,23.0,-232.0,2443.0,480.0,-1735.0,1260.0
269.0,134.0,-12.0,3.0,1970.0,343.0,-791.0,1012.0
243.0,128.0,-29.0,453.0,1904.0,95.0,838.0,645.0
253.0,115.0,40.0,555.0,2448.0,74.0,2179.0,276.0
195.0,87.0,79.0,301.0,2363.0,95.0,1418.0,-69.0
76.0,52.0,61.0,84.0,1824.0,25.0,1070.0,-291.0
-11.0,-4.0,48.0,-71.0,692.0,65.0,1539.0,-545.0
-107.0,-14.0,76.0,2.0,154.0,46.0,1908.0,-708.0
-242.0,-2.0,101.0,-30.0,1097.0,-35.0,2444.0,-862.0
-323.0,30.0,89.0,-18.0,1287.0,-93.0,2036.0,-883.0
-215.0,81.0,69.0,5.0,505.0,-98.0,2179.0,-671.0
14.0,86.0,89.0,26.0,-68.0,-130.0,1605.0,-352.0
147.0,89.0,122.0,96.0,282.0,-167.0,988.0,18.0
243.0,57.0,83.0,19.0,1580.0,-157.0,824.0,119.0
281.0,-27.0,62.0,-7.0,2124.0,-143.0,858.0,45.0
17.0,-162.0,24.0,-31.0,1734.0,-109.0,1418.0,92.0
-114.0,-188.0,-50.0,-133.0,415.0,-174.0,1602.0,-95.0
-43.0,-137.0,-83.0,-177.0,-812.0,-234.0,2190.0,-553.0
-146.0,-85.0,-108.0,-143.0,-1737.0,-113.0,2364.0,-883.0
-223.0,-28.0,-124.0,-149.0,-1918.0,56.0,1735.0,-1534.0
-286.0,-34.0,-102.0,-217.0,-812.0,146.0,1695.0,-1859.0
-274.0,-18.0,-109.0,-242.0,-245.0,70.0,2255.0,-1594.0
-134.0,-39.0,-69.0,-167.0,-385.0,16.0,2191.0,-1234.0
161.0,-38.0,-28.0,-178.0,-903.0,18.0,1825.0,-608.0
451.0,-31.0,-10.0,-162.0,-622.0,-56.0,1540.0,-594.0
361.0,-36.0,9.0,-140.0,-201.0,-141.0,2179.0,-496.0
285.0,-3.0,-19.0,-121.0,-523.0,-314.0,2582.0,193.0
202.0,25.0,-16.0,-132.0,-862.0,-314.0,1919.0,293.0
-9.0,58.0,-49.0,-200.0,-1508.0,-267.0,1519.0,434.0
-102.0,28.0,-101.0,-151.0,-2212.0,-240.0,1723.0,564.0
-215.0,36.0,-125.0,-166.0,-2450.0,-15.0,1667.0,355.0
-331.0,-5.0,-133.0,-224.0,-2611.0,103.0,506.0,460.0
-388.0,-23.0,-146.0,-200.0,-3378.0,98.0,350.0,532.0
-196.0,17.0,-147.0,-190.0,-4000.0,113.0,1019.0,727.0
-48.0,18.0,-112.0,-149.0,-4000.0,-22.0,1033.0,947.0
-228.0,24.0,-99.0,-121.0,-4000.0,-180.0,341.0,804.0
-361.0,20.0,-68.0,-131.0,-4000.0,-151.0,-278.0,775.0
-386.0,63.0,-77.0,-188.0,-4000.0,87.0,-359.0,731.0
-314.0,102.0,-41.0,-173.0,-4000.0,536.0,-1308.0,654.0
-85.0,81.0,-3.0,-67.0,-4000.0,758.0,-2158.0,798.0
-319.0,77.0,13.0,-17.0,-4000.0,858.0,-1728.0,804.0
-468.0,33.0,41.0,-40.0,-4000.0,831.0,-1397.0,603.0
-138.0,-59.0,32.0,-41.0,-4000.0,683.0,-1432.0,590.0
-215.0,-97.0,11.0,-22.0,-4000.0,651.0,-1690.0,686.0
-428.0,-150.0,-6.0,-29.0,-4000.0,561.0,-1527.0,700.0
-392.0,-202.0,28.0,18.0,-4000.0,457.0,-1527.0,804.0
-120.0,-200.0,30.0,67.0,-4000.0,398.0,-2465.0,934.0
373.0,-162.0,16.0,69.0,-4000.0,254.0,-2180.0,980.0
855.0,-112.0,53.0,65.0,-4000.0,-73.0,-1793.0,1065.0
769.0,-101.0,152.0,-71.0,-4000.0,303.0,-1397.0,1142.0
334.0,-85.0,190.0,-128.0,-4000.0,822.0,-1043.0,1012.0
-83.0,-45.0,122.0,-133.0,-4000.0,693.0,-1163.0,947.0
228.0,-36.0,24.0,-296.0,-4000.0,795.0,-340.0,804.0
603.0,-40.0,-72.0,-260.0,-4000.0,355.0,-797.0,629.0
745.0,-52.0,-121.0,-193.0,-4000.0,-66.0,-1570.0,700.0
914.0,-89.0,-129.0,-198.0,-4000.0,-468.0,-1332.0,686.0
543.0,-78.0,-47.0,-155.0,-3734.0,-845.0,-1305.0,731.0
263.0,-66.0,-75.0,-137.0,-4000.0,-810.0,-1503.0,890.0
131.0,-68.0,-108.0,-7.0,-4000.0,-731.0,-1767.0,890.0
212.0,-62.0,55.0,129.0,-4000.0,-286.0,-1332.0,719.0
-117.0,-103.0,75.0,152.0,-4000.0,-13.0,-811.0,580.0
-428.0,-117.0,33.0,122.0,-3521.0,1.0,-459.0,294.0
-599.0,-112.0,56.0,155.0,-3327.0,-297.0,-388.0,-85.0
-1039.0,-151.0,-3.0,134.0,-2791.0,-783.0,-651.0,-391.0
-1351.0,-105.0,-1.0,74.0,-1584.0,-1103.0,-901.0,-610.0
-1072.0,-11.0,40.0,136.0,-451.0,-1396.0,-1377.0,-683.0
-589.0,44.0,37.0,161.0,110.0,-1794.0,-1441.0,-736.0
-131.0,51.0,27.0,171.0,-877.0,-1794.0,-994.0,-818.0
586.0,25.0,-6.0,162.0,-1072.0,-1623.0,-576.0,-866.0
320.0,30.0,18.0,152.0,1518.0,-1505.0,-261.0,-692.0
255.0,74.0,-2.0,152.0,3072.0,-1290.0,-152.0,-514.0
104.0,38.0,-9.0,128.0,2760.0,-836.0,-116.0,-352.0
-232.0,13.0,20.0,126.0,3855.0,-137.0,-7.0,-352.0
-182.0,40.0,27.0,137.0,4000.0,170.0,154.0,-602.0
-111.0,-12.0,30.0,133.0,4000.0,368.0,-15.0,-869.0
-81.0,4.0,13.0,112.0,4000.0,289.0,-598.0,-1120.0
-279.0,38.0,6.0,146.0,4000.0,135.0,-833.0,-1271.0
-19.0,23.0,30.0,122.0,4000.0,319.0,-587.0,-1339.0
-55.0,72.0,85.0,67.0,4000.0,462.0,-363.0,-1375.0
-39.0,128.0,85.0,67.0,4000.0,795.0,-171.0,-1381.0
137.0,160.0,64.0,44.0,4000.0,1006.0,71.0,-1456.0
301.0,149.0,50.0,26.0,4000.0,1142.0,403.0,-1455.0
371.0,105.0,30.0,-79.0,4000.0,1328.0,723.0,-1404.0
102.0,22.0,-32.0,-194.0,4000.0,1657.0,409.0,-1450.0
-396.0,3.0,-133.0,-253.0,4000.0,2164.0,-59.0,-1384.0
-327.0,21.0,-70.0,-225.0,4000.0,2428.0,-122.0,-1534.0
220.0,30.0,-48.0,-179.0,4000.0,2680.0,-7.0,-1497.0
3.0,40.0,-32.0,-161.0,4000.0,2306.0,311.0,-818.0
733.0,-30.0,-13.0,-41.0,4000.0,1604.0,188.0,-572.0
920.0,-28.0,-44.0,-49.0,4000.0,1018.0,-233.0,-467.0
798.0,7.0,-32.0,-56.0,4000.0,170.0,-381.0,-305.0
1051.0,-12.0,-116.0,18.0,4000.0,-190.0,-294.0,-158.0
725.0,-22.0,-101.0,264.0,4000.0,-459.0,-98.0,138.0
755.0,38.0,-50.0,438.0,4000.0,-810.0,-35.0,188.0
285.0,75.0,-54.0,17.0,4000.0,-1070.0,-216.0,304.0
-29.0,55.0,-27.0,-336.0,4000.0,-1070.0,-442.0,103.0
-367.0,69.0,-15.0,-427.0,4000.0,-1010.0,-424.0,-105.0
-483.0,34.0,-2.0,-328.0,4000.0,-1375.0,-331.0,-5.0
-428.0,-66.0,73.0,-196.0,4000.0,-1851.0,-280.0,133.0
-384.0,-148.0,172.0,-202.0,2878.0,-2284.0,-280.0,404.0
-295.0,-118.0,172.0,-27.0,1592.0,-1975.0,-156.0,634.0
-331.0,-72.0,325.0,92.0,1756.0,-1672.0,116.0,707.0
-323.0,-68.0,546.0,139.0,3102.0,-1502.0,273.0,686.0
-493.0,-106.0,356.0,105.0,3863.0,-1585.0,268.0,739.0
-457.0,-98.0,199.0,77.0,3877.0,-1818.0,319.0,654.0
-479.0,-65.0,158.0,114.0,2776.0,-2054.0,407.0,670.0
-244.0,-47.0,-106.0,69.0,195.0,-2595.0,498.0,760.0
-78.0,-11.0,-112.0,62.0,-2316.0,-2713.0,596.0,808.0
-172.0,-1.0,-253.0,75.0,-4000.0,-2467.0,667.0,831.0
-73.0,46.0,-454.0,63.0,-4000.0,-1883.0,702.0,788.0
-86.0,56.0,-515.0,-65.0,-4000.0,-1047.0,660.0,695.0
-63.0,55.0,-480.0,-16.0,-4000.0,50.0,608.0,634.0
-49.0,34.0,-304.0,96.0,-4000.0,758.0,596.0,686.0
44.0,23.0,-291.0,115.0,-4000.0,961.0,562.0,808.0
212.0,31.0,-161.0,90.0,-4000.0,532.0,468.0,1057.0
315.0,66.0,-232.0,-62.0,-4000.0,-258.0,398.0,1334.0
524.0,12.0,-287.0,-212.0,-4000.0,-555.0,394.0,1598.0
640.0,22.0,-219.0,-391.0,-4000.0,337.0,433.0,1859.0
447.0,49.0,-401.0,-393.0,-4000.0,1842.0,543.0,1753.0
187.0,12.0,-470.0,-246.0,-4000.0,1733.0,637.0,1199.0
143.0,33.0,-197.0,-105.0,-3970.0,628.0,608.0,241.0
143.0,1.0,93.0,167.0,-3014.0,162.0,492.0,-692.0
212.0,17.0,178.0,337.0,-2187.0,586.0,526.0,-1383.0
277.0,-8.0,219.0,238.0,-1823.0,701.0,684.0,-2022.0
296.0,34.0,137.0,72.0,-930.0,687.0,600.0,-2617.0
65.0,70.0,89.0,6.0,-918.0,921.0,539.0,-3138.0
-376.0,39.0,36.0,-102.0,-1672.0,673.0,571.0,-3333.0
-227.0,85.0,-116.0,-300.0,-1918.0,823.0,523.0,-3308.0
119.0,80.0,-132.0,-285.0,-1703.0,1092.0,628.0,-3060.0
-27.0,91.0,10.0,-183.0,-1077.0,866.0,684.0,-2735.0
-413.0,79.0,441.0,-195.0,-49.0,524.0,684.0,-2347.0
-836.0,79.0,748.0,-148.0,811.0,361.0,652.0,-1891.0
-1006.0,73.0,419.0,-175.0,1401.0,463.0,767.0,-1808.0
-880.0,59.0,113.0,-136.0,1992.0,200.0,738.0,-1677.0
-873.0,99.0,328.0,96.0,2189.0,57.0,620.0,-1469.0
-807.0,87.0,490.0,207.0,2378.0,476.0,779.0,-1449.0
-575.0,122.0,246.0,276.0,2504.0,766.0,743.0,-1339.0
-428.0,115.0,-183.0,360.0,2502.0,1018.0,598.0,-1083.0
-348.0,124.0,-479.0,433.0,2124.0,1214.0,576.0,-804.0
-242.0,162.0,-473.0,467.0,1254.0,1462.0,506.0,-548.0
-227.0,151.0,-375.0,272.0,190.0,1473.0,329.0,-218.0
-195.0,156.0,-413.0,109.0,-644.0,1205.0,321.0,136.0
-52.0,124.0,-178.0,109.0,-588.0,1163.0,301.0,541.0
184.0,115.0,368.0,71.0,-206.0,1182.0,83.0,1085.0
376.0,71.0,541.0,-18.0,-225.0,1248.0,-92.0,1763.0
399.0,4.0,364.0,-228.0,15.0,1207.0,-97.0,2624.0
495.0,-47.0,290.0,-466.0,-376.0,888.0,-465.0,3999.0
477.0,-72.0,-157.0,-446.0,-908.0,510.0,-847.0,4000.0
375.0,-64.0,-458.0,-167.0,-1198.0,510.0,-1136.0,4000.0
489.0,-79.0,-247.0,56.0,-1588.0,713.0,-1332.0,4000.0
564.0,-53.0,-167.0,85.0,-942.0,748.0,-685.0,4000.0
530.0,-35.0,110.0,116.0,-812.0,654.0,-186.0,4000.0
473.0,-47.0,284.0,142.0,-1383.0,616.0,-48.0,4000.0
382.0,-47.0,306.0,-67.0,-2081.0,563.0,260.0,-1997.0
285.0,-87.0,244.0,-312.0,-1963.0,351.0,242.0,-4000.0
108.0,-92.0,48.0,-462.0,-1768.0,326.0,183.0,-4000.0
93.0,-93.0,71.0,-401.0,-2318.0,327.0,123.0,-4000.0
493.0,-108.0,248.0,-214.0,-2081.0,303.0,-26.0,-4000.0
705.0,-104.0,269.0,-146.0,-1802.0,290.0,17.0,-524.0
460.0,-96.0,343.0,-168.0,-1077.0,142.0,-94.0,2313.0
318.0,-92.0,523.0,-198.0,-673.0,15.0,-327.0,4000.0
256.0,-101.0,541.0,-40.0,-505.0,-3.0,-464.0,4000.0
61.0,-85.0,728.0,111.0,-460.0,-66.0,-384.0,4000.0
147.0,-63.0,896.0,106.0,-286.0,-199.0,-255.0,3458.0
100.0,-53.0,785.0,43.0,-46.0,-354.0,-154.0,1460.0
-372.0,-42.0,606.0,67.0,-677.0,-546.0,-77.0,64.0
-2419.0,-47.0,206.0,145.0,-1267.0,-541.0,-10.0,-985.0
-4000.0,-10.0,-385.0,140.0,-1626.0,-224.0,27.0,-1613.0
-1707.0,9.0,-232.0,144.0,-1072.0,-196.0,0.0,-2193.0
608.0,-32.0,-101.0,149.0,-837.0,-448.0,9.0,-2800.0
1572.0,-9.0,-1003.0,105.0,-730.0,-378.0,-24.0,-2992.0
2715.0,43.0,-876.0,187.0,-1129.0,-354.0,-12.0,-2992.0
1702.0,99.0,556.0,223.0,-1194.0,-529.0,-11.0,-3318.0
1413.0,155.0,354.0,179.0,-150.0,-600.0,12.0,-3760.0
574.0,132.0,-892.0,248.0,-587.0,-485.0,10.0,-3904.0
70.0,48.0,-1655.0,199.0,-1802.0,-411.0,-4.0,-3889.0
52.0,18.0,-1947.0,66.0,-2935.0,-500.0,35.0,-3321.0
-238.0,13.0,-1599.0,-51.0,-3923.0,-485.0,14.0,-2362.0
-183.0,24.0,-1362.0,-169.0,-3628.0,-345.0,49.0,-1829.0
-566.0,21.0,-828.0,-332.0,-1384.0,-279.0,37.0,-1005.0
-428.0,0.0,-369.0,-437.0,-134.0,-419.0,51.0,-101.0
-453.0,-7.0,284.0,-134.0,-33.0,-472.0,126.0,621.0
-366.0,9.0,297.0,72.0,243.0,-575.0,91.0,1247.0
-361.0,-41.0,-299.0,49.0,-132.0,-516.0,31.0,1142.0
-311.0,-60.0,83.0,66.0,302.0,-304.0,-18.0,666.0
-153.0,-32.0,28.0,264.0,749.0,-293.0,-89.0,522.0
-16.0,-10.0,466.0,598.0,-738.0,-305.0,-67.0,322.0
36.0,4.0,331.0,484.0,-2806.0,-415.0,-22.0,349.0
-96.0,-3.0,-320.0,150.0,-3575.0,-407.0,-63.0,654.0
3.0,30.0,-552.0,-146.0,-3051.0,-485.0,-127.0,914.0
-72.0,8.0,-954.0,-265.0,-2482.0,-541.0,-176.0,1272.0
-72.0,-13.0,-478.0,-336.0,-2108.0,-463.0,-137.0,1859.0
-93.0,-24.0,450.0,-455.0,-947.0,-388.0,-93.0,2313.0
-112.0,-40.0,1574.0,-393.0,-202.0,-354.0,-83.0,1986.0
-101.0,-19.0,-470.0,-258.0,104.0,-338.0,-58.0,1399.0
-99.0,-4.0,-3526.0,35.0,745.0,-62.0,29.0,267.0
-56.0,11.0,-1468.0,3.0,1527.0,170.0,184.0,-1632.0
-79.0,34.0,1639.0,-127.0,2882.0,414.0,321.0,-3480.0
-47.0,21.0,450.0,-40.0,4000.0,628.0,161.0,-4000.0
-3.0,2.0,311.0,-16.0,4000.0,402.0,50.0,-4000.0
122.0,-19.0,931.0,27.0,4000.0,201.0,104.0,-4000.0
212.0,-53.0,402.0,12.0,4000.0,144.0,-20.0,-4000.0
129.0,-35.0,2520.0,-33.0,4000.0,-1.0,-35.0,-4000.0
85.0,-28.0,2746.0,-88.0,4000.0,111.0,-146.0,-4000.0
202.0,-32.0,1379.0,-191.0,4000.0,90.0,-91.0,-1829.0
90.0,-18.0,708.0,-266.0,4000.0,10.0,21.0,1663.0
-62.0,-24.0,671.0,-197.0,4000.0,51.0,-53.0,4000.0
-104.0,-18.0,308.0,-151.0,4000.0,23.0,-40.0,4000.0
-162.0,-28.0,1322.0,-90.0,2386.0,21.0,-36.0,4000.0
-156.0,10.0,3185.0,0.0,1539.0,27.0,50.0,4000.0
-163.0,52.0,3499.0,108.0,2760.0,48.0,-86.0,4000.0
-192.0,43.0,2224.0,92.0,3541.0,142.0,-467.0,3404.0
-213.0,69.0,-497.0,-15.0,2359.0,201.0,-469.0,3487.0
-188.0,50.0,-3266.0,71.0,1378.0,207.0,-159.0,4000.0
-195.0,58.0,-4000.0,76.0,1525.0,315.0,-69.0,4000.0
-203.0,64.0,-3437.0,-11.0,1787.0,209.0,-198.0,4000.0
-162.0,77.0,533.0,-36.0,1842.0,-10.0,-122.0,4000.0
-125.0,105.0,-73.0,-123.0,758.0,-63.0,67.0,4000.0
-77.0,80.0,-1484.0,-41.0,-152.0,-68.0,40.0,4000.0
-36.0,78.0,-1703.0,187.0,216.0,-214.0,-12.0,3676.0
-34.0,86.0,-320.0,313.0,-1190.0,-271.0,112.0,2739.0
19.0,98.0,-547.0,199.0,-3014.0,-141.0,73.0,1633.0
52.0,58.0,-507.0,233.0,-3278.0,-189.0,-16.0,760.0
52.0,25.0,-507.0,366.0,-3119.0,-211.0,-8.0,369.0
74.0,29.0,316.0,248.0,-2735.0,-244.0,-64.0,202.0
139.0,10.0,2665.0,99.0,-2277.0,-390.0,-17.0,50.0
250.0,5.0,2483.0,85.0,-1953.0,-279.0,-20.0,-89.0
277.0,0.0,1900.0,150.0,-2159.0,-280.0,-32.0,79.0
346.0,-12.0,1936.0,-4.0,-3083.0,-327.0,-119.0,249.0
424.0,-46.0,-472.0,-141.0,-2595.0,48.0,-124.0,-133.0
360.0,-39.0,-2085.0,-145.0,-1703.0,132.0,-27.0,-748.0
399.0,-48.0,-3042.0,-110.0,-1426.0,204.0,99.0,-1078.0
321.0,-72.0,-2702.0,-165.0,-1333.0,207.0,152.0,-1404.0
68.0,-79.0,-1134.0,-173.0,-1817.0,-98.0,-51.0,-1590.0
-118.0,-72.0,169.0,-169.0,-1685.0,-135.0,77.0,-1725.0
-132.0,-34.0,1627.0,-328.0,-1489.0,-125.0,339.0,-1723.0
61.0,-59.0,1835.0,-277.0,-616.0,-47.0,265.0,-1671.0
16.0,-66.0,3885.0,-241.0,-502.0,-109.0,-387.0,-1697.0
-135.0,-44.0,4000.0,-128.0,-2316.0,-74.0,-1116.0,-1439.0
-271.0,-28.0,4000.0,85.0,-3446.0,24.0,-737.0,-1298.0
-441.0,-1.0,4000.0,174.0,-3970.0,-49.0,-42.0,-1439.0
-571.0,17.0,4000.0,207.0,-4000.0,65.0,-47.0,-1514.0
-691.0,-20.0,996.0,32.0,-4000.0,10.0,-306.0,-1324.0
-654.0,-30.0,-4000.0,-253.0,-3327.0,-32.0,-188.0,-1180.0
-647.0,-1.0,-4000.0,-414.0,-1882.0,-143.0,206.0,-1310.0
-645.0,7.0,-4000.0,-387.0,-705.0,-204.0,925.0,-1449.0
-566.0,41.0,-4000.0,-336.0,-667.0,-75.0,1410.0,-1235.0
-428.0,70.0,-4000.0,-206.0,-1124.0,-24.0,228.0,-1200.0
-323.0,71.0,-3781.0,55.0,-999.0,90.0,-513.0,-1461.0
-156.0,87.0,-2416.0,325.0,-1228.0,-45.0,-435.0,-1723.0
-18.0,78.0,-1779.0,310.0,-1737.0,27.0,-751.0,-2062.0
154.0,58.0,-1061.0,144.0,-2451.0,-3.0,-224.0,-2024.0
435.0,93.0,4000.0,37.0,-2513.0,37.0,144.0,-1697.0
524.0,122.0,4000.0,-214.0,-1703.0,46.0,-23.0,-1514.0
530.0,84.0,4000.0,-246.0,-1768.0,-252.0,113.0,-1497.0
408.0,17.0,-4000.0,150.0,-2174.0,-224.0,164.0,-1461.0
287.0,-21.0,-4000.0,511.0,-2465.0,-94.0,246.0,-1274.0
228.0,-43.0,-4000.0,360.0,-2735.0,189.0,348.0,-1200.0
169.0,-28.0,-4000.0,116.0,-2386.0,315.0,311.0,-1148.0
76.0,-18.0,-3331.0,73.0,-1805.0,246.0,333.0,-1191.0
179.0,-65.0,-1517.0,59.0,-2287.0,24.0,250.0,-1122.0
499.0,-81.0,-481.0,210.0,-2870.0,-66.0,194.0,-734.0
660.0,-57.0,-422.0,326.0,-1207.0,148.0,140.0,-431.0
375.0,-59.0,1900.0,320.0,1254.0,206.0,97.0,-104.0
136.0,-40.0,4000.0,292.0,701.0,265.0,62.0,396.0
17.0,-12.0,4000.0,129.0,-3192.0,196.0,33.0,519.0
-163.0,-4.0,4000.0,-185.0,-4000.0,-36.0,142.0,461.0
-140.0,50.0,4000.0,-568.0,-3511.0,-149.0,195.0,473.0
-250.0,42.0,3108.0,-604.0,-4000.0,-52.0,177.0,700.0
-361.0,47.0,-4000.0,-423.0,-4000.0,172.0,113.0,751.0
-435.0,124.0,-4000.0,-359.0,-812.0,425.0,49.0,499.0
-453.0,148.0,-4000.0,-206.0,3396.0,586.0,61.0,499.0
-383.0,173.0,-4000.0,-1.0,4000.0,494.0,38.0,760.0
-244.0,62.0,-4000.0,106.0,4000.0,231.0,-68.0,863.0
-71.0,-5.0,16.0,238.0,3949.0,97.0,-44.0,992.0
-67.0,6.0,1739.0,360.0,4000.0,102.0,54.0,1252.0
-79.0,11.0,1756.0,406.0,4000.0,57.0,50.0,1281.0
-39.0,46.0,4000.0,287.0,4000.0,3.0,84.0,1403.0
17.0,114.0,4000.0,99.0,4000.0,-39.0,81.0,1260.0
71.0,162.0,-4000.0,67.0,4000.0,-70.0,53.0,1038.0
147.0,109.0,-4000.0,-66.0,3662.0,-22.0,86.0,981.0
198.0,36.0,-4000.0,-61.0,3072.0,-75.0,59.0,760.0
111.0,-4.0,-1101.0,-9.0,2448.0,-159.0,50.0,499.0
131.0,-38.0,4000.0,-263.0,2907.0,48.0,51.0,334.0
183.0,-84.0,4000.0,-433.0,3464.0,155.0,59.0,201.0
169.0,-64.0,4000.0,-313.0,3668.0,202.0,102.0,242.0
212.0,-74.0,205.0,-260.0,3772.0,293.0,151.0,465.0
214.0,-74.0,374.0,-669.0,3428.0,197.0,170.0,686.0
233.0,-43.0,-4000.0,-635.0,3215.0,170.0,216.0,955.0
171.0,-44.0,-4000.0,-137.0,3127.0,177.0,229.0,1281.0
144.0,-59.0,-4000.0,-141.0,2448.0,177.0,107.0,1541.0
139.0,-43.0,-4000.0,-125.0,1547.0,172.0,0.0,1568.0
85.0,17.0,-4000.0,-175.0,45.0,170.0,-48.0,1842.0
98.0,-37.0,-3225.0,-223.0,-1520.0,161.0,5.0,2078.0
90.0,-37.0,202.0,-44.0,-1318.0,155.0,98.0,2172.0
80.0,28.0,2551.0,-31.0,-1463.0,220.0,220.0,2284.0
32.0,87.0,4000.0,102.0,-3445.0,217.0,472.0,1924.0
-8.0,136.0,3238.0,238.0,-4000.0,172.0,707.0,1482.0
3.0,65.0,1443.0,467.0,-2472.0,274.0,683.0,1216.0
-27.0,48.0,1691.0,720.0,-374.0,374.0,143.0,1216.0
-35.0,110.0,4000.0,811.0,-883.0,299.0,-363.0,1085.0
-25.0,142.0,4000.0,777.0,-1768.0,278.0,-750.0,580.0
0.0,52.0,4000.0,645.0,-681.0,199.0,-976.0,0.0
65.0,-122.0,4000.0,366.0,-319.0,73.0,-355.0,-549.0
149.0,-113.0,4000.0,-289.0,-1007.0,48.0,-106.0,-870.0
99.0,-11.0,4000.0,-625.0,-1202.0,172.0,-459.0,-1078.0
127.0,6.0,-1321.0,-574.0,-1449.0,272.0,-157.0,-1259.0
315.0,-35.0,-4000.0,-724.0,-1731.0,105.0,291.0,-1312.0
241.0,-77.0,-4000.0,-789.0,-1534.0,8.0,-189.0,-1404.0
-14.0,-77.0,-1280.0,-532.0,-409.0,-85.0,-672.0,-1671.0
-154.0,-67.0,4000.0,-214.0,325.0,-216.0,-455.0,-1970.0
-229.0,-74.0,1550.0,-23.0,-459.0,-232.0,-226.0,-2193.0
-327.0,-121.0,844.0,2.0,-1052.0,-266.0,175.0,-2347.0
-388.0,-125.0,3185.0,-33.0,-1507.0,-275.0,50.0,-2605.0
-301.0,-113.0,4000.0,-90.0,-942.0,-247.0,-159.0,-2682.0
-203.0,-64.0,4000.0,-146.0,-385.0,-232.0,551.0,-2584.0
-261.0,37.0,4000.0,-115.0,505.0,-247.0,995.0,-2491.0
-234.0,189.0,4000.0,39.0,1604.0,-247.0,867.0,-2293.0
-71.0,256.0,4000.0,191.0,389.0,-141.0,261.0,-2180.0
93.0,181.0,-4000.0,236.0,-2016.0,-33.0,68.0,-2016.0
134.0,95.0,-4000.0,341.0,-4000.0,-17.0,183.0,-1514.0
24.0,-26.0,-4000.0,377.0,-4000.0,18.0,1.0,-1240.0
92.0,-133.0,-4000.0,358.0,-4000.0,32.0,129.0,-931.0
187.0,-43.0,-3225.0,248.0,-4000.0,-65.0,2.0,-382.0
132.0,112.0,4000.0,99.0,-2859.0,-208.0,2.0,-91.0
-1.0,68.0,4000.0,116.0,-46.0,-237.0,-18.0,108.0
-144.0,24.0,-2383.0,120.0,1213.0,-216.0,-45.0,239.0
-179.0,-204.0,-4000.0,51.0,541.0,-167.0,43.0,369.0
-188.0,-383.0,-4000.0,-10.0,-1137.0,-44.0,22.0,462.0
-135.0,-314.0,-4000.0,-186.0,-2550.0,-15.0,2.0,532.0
103.0,-247.0,-4000.0,-455.0,-1998.0,33.0,-12.0,503.0
460.0,-179.0,-4000.0,-409.0,-1589.0,70.0,107.0,329.0
489.0,-272.0,-4000.0,-370.0,596.0,107.0,178.0,176.0
368.0,-140.0,-4000.0,-364.0,2760.0,220.0,290.0,-134.0
306.0,114.0,-3420.0,-388.0,3269.0,284.0,276.0,-541.0
163.0,112.0,-1211.0,-148.0,3008.0,266.0,233.0,-781.0
212.0,56.0,4000.0,255.0,2125.0,132.0,-24.0,-1046.0
60.0,25.0,4000.0,290.0,2231.0,68.0,-420.0,-1404.0
-42.0,73.0,4000.0,270.0,2308.0,54.0,-342.0,-1540.0
-219.0,217.0,4000.0,301.0,2189.0,15.0,-200.0,-1709.0
-457.0,138.0,2018.0,402.0,2057.0,-25.0,-163.0,-1774.0
-563.0,-138.0,2030.0,336.0,2491.0,-23.0,-147.0,-1772.0
-873.0,-134.0,1544.0,77.0,3037.0,39.0,-147.0,-1697.0
-962.0,-78.0,2211.0,-40.0,2972.0,90.0,-221.0,-1440.0
-945.0,-56.0,2807.0,-6.0,2776.0,103.0,-583.0,-1234.0
-784.0,-50.0,4000.0,51.0,2513.0,97.0,-741.0,-1046.0
-476.0,-27.0,4000.0,47.0,2189.0,100.0,-167.0,-738.0
-46.0,-23.0,3302.0,-19.0,2376.0,100.0,558.0,-406.0
169.0,-195.0,1832.0,19.0,2189.0,84.0,759.0,-180.0
151.0,-182.0,1952.0,20.0,1901.0,39.0,36.0,127.0
122.0,-109.0,2913.0,-118.0,2320.0,-6.0,-1248.0,264.0
86.0,-188.0,4000.0,-132.0,2842.0,-77.0,-1462.0,629.0
160.0,-233.0,4000.0,-89.0,3297.0,-102.0,-477.0,1308.0
90.0,-244.0,4000.0,-78.0,2683.0,-210.0,942.0,1704.0
77.0,-92.0,2538.0,-73.0,1573.0,-378.0,2049.0,1846.0
195.0,77.0,-1362.0,-85.0,683.0,-405.0,2036.0,1728.0
240.0,54.0,-3952.0,-137.0,538.0,-326.0,1534.0,1403.0
243.0,-10.0,-67.0,-194.0,1387.0,-222.0,1010.0,1216.0
292.0,-23.0,988.0,-208.0,2695.0,-116.0,563.0,1281.0
322.0,18.0,-4000.0,-223.0,2320.0,49.0,169.0,1085.0
308.0,48.0,-4000.0,-227.0,725.0,167.0,-570.0,992.0
275.0,22.0,-1862.0,-200.0,-1292.0,271.0,-1234.0,938.0
239.0,-10.0,447.0,-190.0,-4000.0,404.0,-1816.0,751.0
216.0,-15.0,1039.0,-237.0,-4000.0,441.0,-2560.0,955.0
144.0,20.0,-2281.0,-253.0,-3327.0,354.0,-2485.0,1663.0
79.0,36.0,-2871.0,-239.0,355.0,237.0,-941.0,2105.0
64.0,87.0,-2964.0,-233.0,831.0,196.0,637.0,1793.0
30.0,144.0,-4000.0,-16.0,1992.0,72.0,1019.0,1371.0
36.0,99.0,-4000.0,271.0,1769.0,-76.0,401.0,1142.0
5.0,160.0,-4000.0,558.0,-476.0,-44.0,193.0,784.0
-60.0,174.0,-4000.0,864.0,-1638.0,-3.0,1334.0,367.0
-68.0,211.0,-4000.0,988.0,-1318.0,16.0,1854.0,202.0
-69.0,235.0,-3485.0,988.0,-1584.0,-29.0,772.0,-68.0
-70.0,164.0,-1862.0,655.0,-2531.0,-166.0,576.0,-443.0
-43.0,174.0,507.0,305.0,-2318.0,-211.0,732.0,-993.0
-16.0,133.0,1692.0,239.0,-2887.0,-190.0,669.0,-517.0
-37.0,146.0,2471.0,207.0,-3018.0,-86.0,685.0,564.0
16.0,152.0,2018.0,270.0,-2860.0,14.0,-131.0,499.0
96.0,125.0,1627.0,-59.0,-2921.0,61.0,-142.0,816.0
24.0,31.0,1348.0,-654.0,-2806.0,24.0,394.0,890.0
-26.0,-69.0,1314.0,-810.0,-3107.0,-13.0,1164.0,163.0
-53.0,-50.0,2005.0,-782.0,-3014.0,-23.0,1605.0,-392.0
-98.0,-76.0,3369.0,-568.0,-2578.0,-74.0,921.0,-572.0
-99.0,-106.0,4000.0,-228.0,-1820.0,-16.0,154.0,-301.0
-63.0,-96.0,4000.0,-112.0,-942.0,-8.0,-555.0,-670.0
-33.0,-63.0,4000.0,-111.0,-19.0,50.0,-2115.0,-883.0
-43.0,-31.0,3251.0,-227.0,792.0,70.0,-4000.0,-883.0
23.0,-7.0,2347.0,-246.0,1669.0,73.0,-4000.0,-1607.0
44.0,7.0,781.0,-164.0,2160.0,105.0,-4000.0,-2256.0
81.0,20.0,-681.0,-12.0,2178.0,78.0,-867.0,-2295.0
104.0,29.0,-1427.0,114.0,2306.0,135.0,386.0,-1039.0
17.0,25.0,-1541.0,451.0,1853.0,145.0,-1266.0,-113.0
-38.0,48.0,-1388.0,793.0,1032.0,144.0,1593.0,34.0
-132.0,60.0,-2373.0,352.0,659.0,123.0,3868.0,751.0
-197.0,68.0,-3278.0,-206.0,553.0,144.0,2682.0,816.0
-214.0,75.0,-2145.0,-474.0,-111.0,94.0,1670.0,247.0
-165.0,67.0,-447.0,-650.0,-60.0,25.0,-459.0,86.0
-110.0,77.0,837.0,-503.0,310.0,4.0,1.0,-282.0
-63.0,78.0,3185.0,-446.0,171.0,-46.0,722.0,43.0
-7.0,107.0,4000.0,-589.0,831.0,4.0,521.0,825.0
46.0,111.0,4000.0,-559.0,859.0,-26.0,759.0,1085.0
108.0,115.0,3562.0,-580.0,261.0,-50.0,576.0,1460.0
147.0,124.0,764.0,-427.0,-11.0,-43.0,877.0,1769.0
139.0,122.0,-3225.0,-454.0,66.0,-15.0,823.0,2219.0
163.0,125.0,-4000.0,-556.0,299.0,27.0,1581.0,2739.0
147.0,71.0,-4000.0,-285.0,92.0,-17.0,2291.0,2742.0
99.0,66.0,-4000.0,171.0,306.0,-80.0,1711.0,2418.0
142.0,50.0,1249.0,564.0,480.0,-55.0,1345.0,2572.0
139.0,21.0,3829.0,393.0,324.0,25.0,968.0,2934.0
141.0,12.0,2941.0,376.0,98.0,49.0,375.0,2807.0
122.0,-16.0,4000.0,183.0,-66.0,81.0,-33.0,2937.0
1.0,-29.0,3759.0,-174.0,-572.0,76.0,-642.0,3275.0
-98.0,-42.0,-2369.0,-5.0,-1114.0,67.0,-1527.0,2624.0
-162.0,-50.0,-393.0,167.0,-274.0,73.0,-1851.0,851.0
-213.0,-36.0,1127.0,194.0,76.0,99.0,-1600.0,-1894.0
-191.0,-30.0,-376.0,94.0,-356.0,77.0,-1173.0,-4000.0
-201.0,-15.0,2548.0,-163.0,485.0,26.0,-652.0,-4000.0
-171.0,-4.0,-825.0,-393.0,758.0,58.0,-565.0,-4000.0
-107.0,-5.0,-4000.0,-319.0,35.0,26.0,-314.0,-4000.0
-82.0,29.0,-4000.0,13.0,49.0,75.0,-375.0,-4000.0
-51.0,58.0,4000.0,458.0,953.0,45.0,-507.0,-3929.0
-46.0,99.0,4000.0,655.0,2972.0,-68.0,-226.0,-2309.0
-54.0,103.0,-2536.0,-175.0,3733.0,-59.0,-306.0,-2617.0
-29.0,92.0,-4000.0,-1089.0,2160.0,1.0,-542.0,-2735.0
39.0,94.0,-948.0,-432.0,219.0,160.0,-1006.0,-2346.0
15.0,85.0,2649.0,2140.0,-1963.0,228.0,-1318.0,-2280.0
-27.0,60.0,2195.0,4000.0,-3107.0,271.0,-1551.0,-2176.0
-6.0,73.0,1614.0,4000.0,-2513.0,329.0,-1583.0,-508.0
50.0,91.0,-369.0,3372.0,-2186.0,282.0,-1665.0,739.0
104.0,102.0,345.0,2592.0,-1265.0,236.0,-1832.0,2507.0
103.0,110.0,-906.0,-1109.0,1704.0,220.0,-1665.0,4000.0
112.0,105.0,-3030.0,-2729.0,3281.0,245.0,-1441.0,4000.0
114.0,106.0,-4000.0,-4000.0,3877.0,217.0,-536.0,4000.0
62.0,40.0,-4000.0,-4000.0,4000.0,167.0,824.0,4000.0
42.0,4.0,-4000.0,-2472.0,302.0,152.0,1395.0,4000.0
109.0,-3.0,441.0,-2177.0,-2444.0,78.0,1353.0,4000.0
106.0,-99.0,4000.0,-498.0,-769.0,35.0,803.0,4000.0
4.0,-210.0,4000.0,1340.0,432.0,-98.0,759.0,4000.0
-19.0,-249.0,4000.0,472.0,1344.0,-213.0,1214.0,4000.0
-85.0,-302.0,1426.0,134.0,1198.0,-200.0,954.0,4000.0
-215.0,-333.0,-4000.0,158.0,701.0,-182.0,767.0,4000.0
-258.0,-289.0,-4000.0,-318.0,1482.0,-17.0,673.0,4000.0
-201.0,-249.0,284.0,-1216.0,1533.0,70.0,272.0,4000.0
-2.0,-193.0,4000.0,-2261.0,2160.0,63.0,-121.0,727.0
-12.0,-181.0,4000.0,-3292.0,2243.0,90.0,-201.0,-4000.0
-189.0,-118.0,4000.0,-3228.0,2317.0,-12.0,-201.0,-4000.0
-183.0,-60.0,3633.0,-558.0,2255.0,32.0,-355.0,-4000.0
-90.0,-44.0,1843.0,1444.0,2251.0,-3.0,-313.0,-4000.0
-15.0,-30.0,1375.0,3111.0,2189.0,-169.0,-222.0,-4000.0
-99.0,22.0,646.0,4000.0,1669.0,-156.0,-281.0,-4000.0
-45.0,64.0,-2494.0,4000.0,2255.0,-267.0,-390.0,-4000.0
150.0,39.0,-4000.0,4000.0,1995.0,-126.0,-450.0,-4000.0
222.0,105.0,-4000.0,4000.0,1340.0,71.0,-459.0,-4000.0
238.0,168.0,-4000.0,1110.0,1140.0,43.0,-433.0,-4000.0
275.0,152.0,-3601.0,42.0,1417.0,1.0,-417.0,-4000.0
281.0,77.0,-409.0,-2391.0,2485.0,-113.0,-424.0,-4000.0
169.0,14.0,973.0,-4000.0,2189.0,-152.0,-417.0,-883.0
72.0,-28.0,728.0,-4000.0,1279.0,-172.0,-489.0,2029.0
328.0,-128.0,669.0,-2055.0,-631.0,-20.0,-446.0,4000.0
574.0,-172.0,402.0,849.0,-3728.0,289.0,-275.0,4000.0
214.0,-113.0,205.0,1314.0,-2645.0,480.0,-172.0,4000.0
-109.0,-18.0,123.0,-2647.0,-1358.0,457.0,-126.0,4000.0
-226.0,77.0,323.0,-4000.0,-3498.0,303.0,1.0,4000.0
-439.0,122.0,701.0,-1821.0,-2989.0,189.0,183.0,4000.0
-413.0,134.0,546.0,-1024.0,-1963.0,68.0,396.0,4000.0
-166.0,150.0,44.0,197.0,-1398.0,97.0,538.0,4000.0
-39.0,190.0,-328.0,2517.0,-1766.0,155.0,535.0,4000.0
-89.0,183.0,-246.0,2657.0,-2303.0,88.0,793.0,2314.0
42.0,118.0,-343.0,2322.0,-1114.0,-97.0,818.0,-2035.0
263.0,111.0,-408.0,1827.0,-1316.0,-391.0,637.0,-4000.0
298.0,36.0,-282.0,3733.0,-1998.0,-639.0,803.0,-4000.0
249.0,-23.0,-338.0,2409.0,-1039.0,-750.0,930.0,-4000.0
273.0,-13.0,-707.0,-24.0,-380.0,-771.0,1057.0,-4000.0
107.0,7.0,-727.0,-2015.0,-837.0,-797.0,1270.0,-4000.0
-72.0,-4.0,-506.0,-3428.0,-1750.0,-630.0,1255.0,-4000.0
-343.0,-114.0,-310.0,-2647.0,-2369.0,-381.0,1314.0,-4000.0
-741.0,-202.0,-320.0,-3738.0,-1423.0,-249.0,1418.0,-4000.0
-895.0,-163.0,-313.0,-2778.0,-860.0,-262.0,1353.0,-4000.0
-1031.0,-32.0,-251.0,1869.0,-797.0,-306.0,1164.0,-4000.0
-742.0,3.0,-225.0,4000.0,-220.0,-118.0,824.0,-4000.0
-311.0,-28.0,-230.0,3437.0,199.0,-145.0,497.0,-4000.0
424.0,7.0,-255.0,2512.0,-508.0,-306.0,56.0,-3773.0
825.0,87.0,-76.0,-914.0,-1072.0,-224.0,51.0,-1387.0
640.0,167.0,28.0,-4000.0,-775.0,-58.0,189.0,1963.0
683.0,143.0,0.0,-4000.0,880.0,54.0,152.0,4000.0
90.0,79.0,-206.0,-2326.0,522.0,79.0,341.0,4000.0
-472.0,20.0,-285.0,-444.0,-1489.0,150.0,571.0,4000.0
-844.0,-135.0,-299.0,2.0,-2094.0,276.0,1259.0,4000.0
-942.0,-242.0,-363.0,-545.0,-2466.0,299.0,1931.0,4000.0
-823.0,-292.0,-338.0,1588.0,-1310.0,286.0,2230.0,4000.0
-571.0,-282.0,-255.0,3815.0,1352.0,311.0,1983.0,4000.0
-404.0,-220.0,-225.0,4000.0,3204.0,506.0,1446.0,4000.0
-384.0,-154.0,-182.0,3641.0,1787.0,858.0,1334.0,4000.0
-138.0,-75.0,12.0,4000.0,147.0,1247.0,1314.0,4000.0
-91.0,-9.0,93.0,4000.0,953.0,1517.0,1183.0,4000.0
80.0,82.0,136.0,4000.0,155.0,1482.0,637.0,4000.0
125.0,121.0,223.0,1869.0,-934.0,1398.0,-72.0,4000.0
235.0,114.0,193.0,-4000.0,-451.0,1377.0,-542.0,4000.0
358.0,87.0,44.0,-4000.0,-34.0,1473.0,-794.0,4000.0
427.0,93.0,-178.0,-4000.0,896.0,1517.0,-1071.0,4000.0
863.0,128.0,-161.0,-4000.0,1247.0,1482.0,-1433.0,4000.0
1234.0,84.0,30.0,-3428.0,1395.0,1333.0,-1648.0,3523.0
953.0,55.0,72.0,-4000.0,1966.0,811.0,-1739.0,2418.0
692.0,38.0,89.0,-4000.0,1800.0,394.0,-1716.0,1663.0
406.0,44.0,212.0,2252.0,1533.0,-310.0,-1600.0,1411.0
-212.0,0.0,480.0,4000.0,1313.0,-1650.0,-1397.0,1781.0
-392.0,-47.0,476.0,4000.0,351.0,-2608.0,-1388.0,1901.0
-565.0,16.0,230.0,-2568.0,-1198.0,-2685.0,-1332.0,1390.0
-421.0,71.0,180.0,-4000.0,-3213.0,-2447.0,-846.0,634.0
-331.0,84.0,89.0,-4000.0,-4000.0,-2008.0,-482.0,24.0
-296.0,68.0,85.0,-3311.0,-4000.0,-597.0,-408.0,-460.0
-152.0,67.0,163.0,-2713.0,-4000.0,544.0,-517.0,-948.0
-33.0,128.0,74.0,-282.0,-4000.0,-997.0,-907.0,-1058.0
296.0,209.0,-87.0,2592.0,-4000.0,-3698.0,-1358.0,-1208.0
446.0,217.0,-151.0,3259.0,-4000.0,-4000.0,-1291.0,-1208.0
595.0,197.0,-64.0,4000.0,-4000.0,-3258.0,-867.0,-1494.0
514.0,132.0,122.0,4000.0,-4000.0,636.0,-275.0,-1904.0
104.0,11.0,305.0,2592.0,-4000.0,2503.0,-485.0,-1658.0
-262.0,-50.0,253.0,-1644.0,-4000.0,2124.0,-1071.0,-1469.0
-227.0,-13.0,201.0,-2487.0,-4000.0,1077.0,-1063.0,-1111.0
-16.0,-24.0,443.0,-894.0,-3262.0,-1192.0,-1187.0,-983.0
16.0,-141.0,772.0,4000.0,-109.0,-1381.0,-901.0,-1514.0
-91.0,-222.0,689.0,4000.0,3668.0,-1096.0,-711.0,-1859.0
-114.0,-228.0,244.0,4000.0,4000.0,-1381.0,-459.0,-2406.0
-172.0,-175.0,10.0,2608.0,4000.0,-1317.0,707.0,-2735.0
-249.0,-147.0,-79.0,-810.0,4000.0,-2287.0,1208.0,-3138.0
-101.0,-109.0,-230.0,-4000.0,4000.0,-3048.0,652.0,-4000.0
-54.0,-98.0,-258.0,-4000.0,-1114.0,-3750.0,265.0,-4000.0
-117.0,-125.0,-277.0,-4000.0,-4000.0,-3571.0,380.0,-4000.0
-143.0,-109.0,-65.0,-4000.0,-4000.0,-3429.0,441.0,-4000.0
-86.0,-23.0,389.0,-4000.0,-4000.0,-3323.0,329.0,-2153.0
-38.0,70.0,150.0,-2713.0,-4000.0,-2642.0,339.0,419.0
49.0,70.0,-288.0,2657.0,-4000.0,-2416.0,608.0,1924.0
367.0,-13.0,-311.0,4000.0,-4000.0,-1437.0,1019.0,2770.0
668.0,-128.0,-277.0,4000.0,-4000.0,-428.0,1267.0,3144.0
440.0,-52.0,-33.0,4000.0,-4000.0,-151.0,1223.0,2835.0
163.0,77.0,41.0,1302.0,-4000.0,831.0,1092.0,2225.0
300.0,134.0,82.0,-328.0,-4000.0,1377.0,860.0,1769.0
412.0,158.0,85.0,-3209.0,-4000.0,1656.0,812.0,1263.0
65.0,163.0,17.0,-2116.0,-4000.0,3409.0,1267.0,825.0
-685.0,175.0,181.0,31.0,-4000.0,3914.0,1722.0,1338.0
-750.0,152.0,517.0,1125.0,-4000.0,1488.0,1510.0,1259.0
-445.0,136.0,1119.0,-3023.0,-4000.0,246.0,348.0,526.0
-244.0,20.0,1127.0,-4000.0,-4000.0,1929.0,-1030.0,261.0
-8.0,-142.0,891.0,-4000.0,-4000.0,3409.0,-2340.0,164.0
-20.0,-232.0,361.0,-4000.0,-4000.0,4000.0,-2469.0,-76.0
-111.0,-240.0,-271.0,-4000.0,-4000.0,4000.0,-403.0,-26.0
-220.0,-280.0,-741.0,-4000.0,-4000.0,4000.0,2049.0,107.0
-327.0,-307.0,-1028.0,-2520.0,3215.0,4000.0,2631.0,227.0
-323.0,-293.0,-753.0,3495.0,4000.0,4000.0,427.0,206.0
-251.0,-166.0,-757.0,4000.0,4000.0,3900.0,-1184.0,-228.0
-117.0,28.0,-255.0,4000.0,4000.0,3720.0,307.0,-518.0
-51.0,110.0,148.0,2970.0,4000.0,4000.0,1931.0,-734.0
-168.0,194.0,183.0,-1545.0,4000.0,3914.0,1314.0,-648.0
-170.0,273.0,280.0,-3738.0,4000.0,2840.0,-179.0,-518.0
-35.0,384.0,252.0,-2697.0,4000.0,2440.0,-1637.0,-534.0
72.0,418.0,402.0,-2262.0,4000.0,1848.0,-3196.0,-572.0
122.0,381.0,111.0,467.0,4000.0,1592.0,-3538.0,-720.0
121.0,341.0,-124.0,3104.0,4000.0,1344.0,-2610.0,-724.0
166.0,282.0,-313.0,4000.0,4000.0,1124.0,336.0,-692.0
181.0,536.0,-95.0,4000.0,4000.0,857.0,3333.0,-555.0
166.0,1006.0,46.0,2216.0,4000.0,537.0,3876.0,-385.0
95.0,977.0,-21.0,642.0,209.0,171.0,3429.0,-389.0
28.0,459.0,572.0,590.0,-3838.0,-224.0,3535.0,-286.0
31.0,95.0,582.0,-2896.0,-4000.0,-198.0,2552.0,226.0
41.0,-347.0,85.0,-4000.0,-4000.0,-247.0,38.0,1150.0
63.0,-901.0,-80.0,-4000.0,-4000.0,47.0,-2675.0,1150.0
44.0,-1155.0,124.0,-2924.0,-4000.0,412.0,-4000.0,-996.0
245.0,-1216.0,-128.0,-2224.0,-4000.0,164.0,-4000.0,-3593.0
521.0,-1058.0,-694.0,-2118.0,-4000.0,-134.0,-2622.0,-3309.0
375.0,-881.0,-629.0,1628.0,-4000.0,-243.0,-1583.0,-427.0
228.0,-618.0,-263.0,3176.0,-3856.0,-204.0,-2728.0,881.0
603.0,-379.0,48.0,3361.0,-3327.0,563.0,-1071.0,-193.0
986.0,-141.0,-287.0,2528.0,-3917.0,1188.0,1628.0,-3578.0
668.0,7.0,-447.0,3162.0,-3408.0,902.0,2125.0,-4000.0
269.0,-169.0,-560.0,4000.0,-3563.0,455.0,667.0,-4000.0
204.0,-153.0,-970.0,4000.0,-4000.0,-117.0,3086.0,-4000.0
45.0,-105.0,-959.0,4000.0,-4000.0,-289.0,4000.0,-4000.0
-516.0,-43.0,-898.0,4000.0,-4000.0,-1096.0,98.0,-3268.0
-664.0,28.0,-494.0,4000.0,-4000.0,-3978.0,-2546.0,-3904.0
-79.0,11.0,-265.0,2803.0,-4000.0,-4000.0,-2158.0,-2824.0
-30.0,45.0,-369.0,1954.0,-4000.0,-3917.0,-255.0,-1429.0
-308.0,30.0,11.0,785.0,-4000.0,-3063.0,620.0,-1738.0
-569.0,84.0,337.0,756.0,-4000.0,-2449.0,291.0,-317.0
-605.0,125.0,606.0,366.0,-4000.0,-2274.0,303.0,2290.0
-417.0,139.0,703.0,-556.0,-3884.0,-2510.0,-152.0,4000.0
-474.0,115.0,461.0,-293.0,-3379.0,-2268.0,-308.0,4000.0
-575.0,150.0,299.0,35.0,-3380.0,-2493.0,-485.0,4000.0
-518.0,156.0,-81.0,-456.0,-2735.0,-3572.0,-473.0,4000.0
-453.0,132.0,5.0,-633.0,-1044.0,-3051.0,-576.0,4000.0
-306.0,159.0,55.0,-650.0,338.0,-2338.0,-644.0,3263.0
-44.0,114.0,18.0,-978.0,766.0,-1766.0,-790.0,978.0
-41.0,157.0,272.0,-650.0,232.0,-932.0,-876.0,-101.0
-63.0,157.0,317.0,-826.0,-2057.0,-448.0,-876.0,-1180.0
74.0,132.0,317.0,-841.0,-4000.0,283.0,-620.0,-3007.0
256.0,110.0,77.0,-1080.0,-4000.0,557.0,21.0,-2849.0
315.0,133.0,8.0,-1044.0,-3327.0,660.0,362.0,91.0
235.0,113.0,202.0,-901.0,-360.0,590.0,281.0,2413.0
208.0,80.0,231.0,-891.0,3232.0,506.0,-313.0,2754.0
300.0,102.0,153.0,-719.0,4000.0,461.0,-789.0,2302.0
357.0,51.0,-64.0,-938.0,4000.0,396.0,-982.0,1916.0
281.0,70.0,-505.0,-1154.0,4000.0,498.0,-1055.0,1986.0
281.0,22.0,-542.0,-1287.0,4000.0,586.0,-762.0,3079.0
306.0,-8.0,-405.0,-1225.0,4000.0,701.0,-135.0,4000.0
299.0,13.0,-645.0,-1329.0,4000.0,680.0,254.0,3910.0
255.0,9.0,-776.0,-1370.0,4000.0,551.0,-9.0,3275.0
188.0,-15.0,-709.0,-1343.0,4000.0,355.0,-48.0,2563.0
196.0,10.0,-357.0,-1240.0,4000.0,112.0,-36.0,1598.0
220.0,38.0,-5.0,-1201.0,4000.0,-155.0,109.0,1346.0
250.0,34.0,38.0,-1222.0,4000.0,-326.0,416.0,947.0
216.0,34.0,9.0,-1141.0,4000.0,-446.0,526.0,462.0
190.0,30.0,-299.0,-1201.0,4000.0,-501.0,600.0,499.0
192.0,64.0,-651.0,-1180.0,4000.0,-532.0,576.0,1977.0
155.0,39.0,-531.0,-1021.0,4000.0,-565.0,767.0,1848.0
104.0,1.0,186.0,-782.0,4000.0,-472.0,897.0,927.0
3.0,-21.0,611.0,-702.0,4000.0,-318.0,962.0,14.0
-59.0,-42.0,431.0,-746.0,4000.0,-190.0,1071.0,-1691.0
-112.0,-77.0,385.0,-807.0,3877.0,-112.0,968.0,-1762.0
-207.0,-117.0,284.0,-812.0,4000.0,-72.0,684.0,-1429.0
-179.0,-39.0,402.0,-614.0,4000.0,-172.0,445.0,825.0
-127.0,22.0,708.0,-336.0,4000.0,-350.0,485.0,4000.0
-158.0,54.0,793.0,-136.0,4000.0,-526.0,642.0,4000.0
-135.0,105.0,846.0,43.0,4000.0,-663.0,619.0,4000.0
-108.0,70.0,728.0,183.0,1579.0,-733.0,693.0,1403.0
-183.0,34.0,636.0,229.0,-4000.0,-716.0,782.0,-2694.0
-449.0,19.0,559.0,270.0,-4000.0,-600.0,684.0,-4000.0
-637.0,25.0,415.0,248.0,-4000.0,-474.0,642.0,-4000.0
138.0,52.0,110.0,217.0,-4000.0,-255.0,576.0,-4000.0
798.0,99.0,-1073.0,207.0,-1501.0,-69.0,693.0,-4000.0
758.0,119.0,-4000.0,276.0,1032.0,111.0,481.0,-4000.0
790.0,138.0,-4000.0,373.0,-3456.0,265.0,184.0,-3655.0
378.0,135.0,-4000.0,376.0,-4000.0,315.0,-74.0,-1672.0
-41.0,81.0,-4000.0,394.0,-4000.0,361.0,-459.0,-1055.0
-523.0,46.0,748.0,394.0,-4000.0,300.0,-515.0,-999.0
-1152.0,47.0,4000.0,442.0,-4000.0,74.0,-510.0,816.0
-1219.0,49.0,4000.0,467.0,-4000.0,-221.0,-403.0,1912.0
-1039.0,-14.0,4000.0,394.0,-4000.0,-485.0,-314.0,1686.0
-799.0,-72.0,4000.0,276.0,-4000.0,-771.0,-298.0,2118.0
-413.0,-48.0,4000.0,155.0,-4000.0,-966.0,-394.0,980.0
-160.0,-24.0,3380.0,193.0,-4000.0,-946.0,-394.0,674.0
-313.0,-75.0,1158.0,290.0,-4000.0,-771.0,-420.0,-240.0
-470.0,-86.0,-157.0,329.0,-4000.0,-379.0,-420.0,-1070.0
-209.0,20.0,345.0,245.0,-4000.0,-72.0,-195.0,-1129.0
88.0,115.0,1223.0,276.0,-4000.0,293.0,-167.0,-506.0
256.0,121.0,1965.0,400.0,-4000.0,858.0,-151.0,503.0
473.0,67.0,2266.0,442.0,-4000.0,1401.0,-92.0,1456.0
315.0,76.0,1348.0,400.0,-4000.0,1919.0,58.0,1568.0
27.0,110.0,-1004.0,272.0,-4000.0,2224.0,24.0,765.0
-48.0,128.0,-4000.0,245.0,-4000.0,2373.0,-145.0,1895.0
227.0,162.0,-4000.0,232.0,-4000.0,2503.0,31.0,2437.0
446.0,181.0,-3846.0,245.0,-4000.0,2568.0,384.0,781.0
353.0,197.0,-820.0,317.0,-4000.0,2490.0,571.0,-583.0
331.0,197.0,3185.0,260.0,-4000.0,2254.0,665.0,-2293.0
144.0,181.0,4000.0,174.0,-4000.0,1982.0,877.0,-2747.0
66.0,199.0,2525.0,101.0,-4000.0,1703.0,881.0,1403.0
-105.0,157.0,-2027.0,-28.0,-4000.0,1390.0,702.0,2739.0
-262.0,73.0,-4000.0,-177.0,-3909.0,1018.0,407.0,2089.0
-280.0,115.0,-3756.0,-322.0,-2056.0,706.0,185.0,2433.0
-283.0,105.0,-2398.0,-384.0,-3132.0,380.0,271.0,-407.0
-190.0,117.0,-268.0,-322.0,-3582.0,46.0,554.0,-736.0
-180.0,160.0,2651.0,-291.0,-4000.0,-236.0,563.0,686.0
-179.0,117.0,3380.0,-314.0,-4000.0,-411.0,433.0,1112.0
-312.0,108.0,2286.0,-332.0,-4000.0,-340.0,543.0,1112.0
-371.0,75.0,402.0,-279.0,-4000.0,-102.0,380.0,1623.0
-260.0,34.0,-2187.0,-159.0,-2645.0,126.0,110.0,1986.0
-232.0,8.0,-2560.0,-94.0,-1782.0,355.0,152.0,2013.0
-188.0,16.0,-2964.0,-115.0,-1515.0,480.0,326.0,2302.0
-62.0,9.0,-4000.0,-127.0,-1528.0,348.0,194.0,2054.0
-49.0,8.0,-3340.0,-68.0,-483.0,-5.0,90.0,1989.0
-80.0,73.0,-661.0,-65.0,-395.0,-419.0,-51.0,1520.0
-72.0,63.0,1639.0,-86.0,-1012.0,-1056.0,-323.0,1012.0
-72.0,-5.0,3758.0,-90.0,-738.0,-1989.0,-258.0,556.0
-36.0,-43.0,4000.0,-119.0,-280.0,-2998.0,-473.0,302.0
-37.0,-39.0,1228.0,-175.0,-256.0,-3684.0,-646.0,-30.0
-49.0,-36.0,-2318.0,-68.0,114.0,-3919.0,-707.0,-248.0
-17.0,-23.0,-2964.0,7.0,1183.0,-3763.0,-774.0,-208.0
12.0,-16.0,-1342.0,-70.0,2451.0,-2983.0,-902.0,-340.0
45.0,-32.0,508.0,-28.0,2748.0,-2221.0,-1206.0,-378.0
43.0,-36.0,2616.0,40.0,1443.0,-1688.0,-1266.0,-555.0
49.0,-49.0,3054.0,42.0,731.0,-1004.0,-1173.0,-875.0
62.0,-37.0,2030.0,-11.0,683.0,-289.0,-826.0,-1319.0
72.0,-39.0,1237.0,-60.0,641.0,542.0,-862.0,-1626.0
-31.0,-47.0,956.0,-46.0,701.0,1248.0,-861.0,-1642.0
-382.0,-75.0,801.0,-17.0,792.0,1666.0,-212.0,-1241.0
-172.0,-40.0,364.0,93.0,1091.0,1994.0,375.0,-1367.0
595.0,-43.0,-206.0,80.0,1657.0,2356.0,1410.0,-1374.0
725.0,-53.0,-1081.0,-129.0,2439.0,2363.0,2631.0,-824.0
465.0,-35.0,-2373.0,-250.0,2618.0,2112.0,1711.0,-919.0
3.0,-73.0,-3473.0,-299.0,2100.0,1798.0,-310.0,-1050.0
-620.0,-48.0,-2964.0,-273.0,1409.0,1708.0,-1767.0,-1194.0
-824.0,-32.0,-4000.0,-265.0,1799.0,1907.0,-3065.0,-948.0
-341.0,17.0,-4000.0,-220.0,3410.0,2230.0,-3816.0,-1049.0
212.0,31.0,-4000.0,-190.0,4000.0,2645.0,-3196.0,-1111.0
361.0,-8.0,-4000.0,-177.0,4000.0,2710.0,-849.0,-589.0
228.0,-23.0,-2601.0,-136.0,4000.0,2223.0,1223.0,-744.0
-453.0,-13.0,4000.0,-102.0,4000.0,1693.0,1280.0,-605.0
-1006.0,-11.0,4000.0,-5.0,4000.0,1443.0,597.0,-508.0
-40.0,-42.0,4000.0,-40.0,4000.0,1474.0,-745.0,-1049.0
1108.0,-45.0,2159.0,-54.0,4000.0,1604.0,-1700.0,-1078.0
1634.0,-44.0,317.0,-17.0,4000.0,1482.0,-1071.0,-973.0
2015.0,-99.0,-185.0,-30.0,4000.0,1539.0,-856.0,-1070.0
1358.0,-102.0,-519.0,-152.0,4000.0,1352.0,-680.0,-1241.0
716.0,-31.0,2130.0,-243.0,3859.0,657.0,-447.0,-992.0
-89.0,9.0,4000.0,-149.0,4000.0,-130.0,-582.0,-545.0
-384.0,30.0,4000.0,-14.0,4000.0,-1308.0,-477.0,-362.0
-428.0,-21.0,4000.0,158.0,2491.0,-2313.0,-459.0,-338.0
-795.0,-108.0,4000.0,303.0,444.0,-2998.0,661.0,-411.0
-1031.0,-216.0,2095.0,506.0,2035.0,-3569.0,1323.0,-386.0
-1652.0,-375.0,976.0,622.0,4000.0,-3894.0,1194.0,-385.0
-1735.0,-328.0,-538.0,645.0,4000.0,-4000.0,1457.0,-417.0
-1762.0,-111.0,-1150.0,663.0,4000.0,-4000.0,1149.0,-423.0
-1298.0,-93.0,-1198.0,604.0,4000.0,-4000.0,1149.0,-334.0
-438.0,-135.0,-1602.0,564.0,4000.0,-4000.0,1149.0,-200.0
-61.0,-113.0,-1655.0,512.0,4000.0,-4000.0,930.0,-33.0
-35.0,-129.0,-1617.0,458.0,2112.0,-4000.0,548.0,49.0
123.0,-104.0,-1427.0,311.0,-3197.0,-4000.0,156.0,157.0
358.0,-154.0,-1602.0,179.0,-4000.0,-4000.0,-43.0,228.0
371.0,-114.0,-2346.0,-88.0,-4000.0,-4000.0,-550.0,288.0
322.0,13.0,-3420.0,-326.0,-4000.0,-4000.0,-941.0,341.0
382.0,-19.0,-3539.0,-282.0,-4000.0,-4000.0,-475.0,360.0
538.0,19.0,-2678.0,-122.0,-4000.0,-4000.0,90.0,409.0
543.0,-72.0,-1630.0,-28.0,-4000.0,-4000.0,203.0,535.0
543.0,-240.0,-1268.0,-81.0,-4000.0,-4000.0,334.0,677.0
528.0,-144.0,-1003.0,-133.0,-4000.0,-4000.0,359.0,798.0
580.0,-114.0,-729.0,-157.0,-4000.0,-3879.0,223.0,1156.0
570.0,-88.0,-617.0,-136.0,-4000.0,-672.0,-261.0,1346.0
460.0,9.0,-320.0,-104.0,-4000.0,2629.0,-275.0,1323.0
386.0,1.0,-231.0,-50.0,-4000.0,4000.0,-109.0,1247.0
371.0,45.0,-36.0,-79.0,128.0,4000.0,-224.0,1012.0
250.0,28.0,37.0,-111.0,4000.0,4000.0,32.0,961.0
82.0,30.0,109.0,-111.0,4000.0,4000.0,620.0,1118.0
-44.0,43.0,215.0,-101.0,4000.0,4000.0,954.0,1130.0
-45.0,75.0,280.0,-16.0,4000.0,4000.0,439.0,961.0
31.0,143.0,345.0,0.0,4000.0,4000.0,268.0,629.0
31.0,119.0,349.0,23.0,4000.0,4000.0,412.0,318.0
85.0,162.0,430.0,81.0,4000.0,4000.0,200.0,600.0
66.0,148.0,441.0,145.0,4000.0,4000.0,-707.0,914.0
120.0,215.0,480.0,149.0,4000.0,4000.0,-1043.0,1150.0
157.0,266.0,467.0,113.0,4000.0,4000.0,-154.0,1456.0
181.0,176.0,449.0,84.0,3297.0,4000.0,954.0,1388.0
155.0,140.0,410.0,14.0,212.0,4000.0,1735.0,1633.0
92.0,152.0,301.0,-25.0,654.0,4000.0,1353.0,2119.0
111.0,163.0,250.0,-22.0,-1032.0,4000.0,1189.0,1781.0
149.0,124.0,288.0,72.0,-930.0,4000.0,1534.0,1156.0
163.0,130.0,318.0,112.0,432.0,4000.0,1711.0,1020.0
103.0,106.0,318.0,42.0,-2.0,2577.0,1202.0,666.0
100.0,95.0,334.0,20.0,-665.0,1026.0,615.0,434.0
22.0,99.0,280.0,-42.0,-2806.0,-416.0,918.0,-45.0
-19.0,36.0,280.0,-168.0,-3262.0,-1766.0,1033.0,128.0
-92.0,10.0,272.0,-233.0,-3655.0,-3181.0,897.0,503.0
-132.0,-36.0,213.0,-253.0,-3446.0,-4000.0,832.0,1069.0
-131.0,-56.0,158.0,-283.0,-2057.0,-4000.0,749.0,1686.0
-162.0,-42.0,200.0,-253.0,-652.0,-4000.0,563.0,802.0
-120.0,-56.0,215.0,2.0,-2181.0,-4000.0,538.0,125.0
-120.0,-56.0,149.0,368.0,-4000.0,-4000.0,673.0,-1078.0
-136.0,-53.0,178.0,178.0,-4000.0,-4000.0,608.0,-1885.0
-160.0,-47.0,225.0,-212.0,-3508.0,-4000.0,445.0,-2218.0
-150.0,-50.0,231.0,-366.0,-4000.0,-4000.0,207.0,-2812.0
-135.0,-76.0,171.0,-513.0,-4000.0,-4000.0,-19.0,-2567.0
-109.0,-72.0,77.0,-336.0,-4000.0,-4000.0,-64.0,-3089.0
-82.0,-117.0,92.0,-227.0,-4000.0,-4000.0,107.0,-2941.0
-79.0,-113.0,169.0,-123.0,-4000.0,-4000.0,283.0,-2022.0
-60.0,-104.0,169.0,37.0,-4000.0,-4000.0,105.0,-1526.0
151.0,-78.0,146.0,311.0,-4000.0,-4000.0,-310.0,-1127.0
758.0,21.0,105.0,506.0,-4000.0,-4000.0,-772.0,-794.0
1130.0,42.0,63.0,255.0,-4000.0,-4000.0,-750.0,112.0
804.0,38.0,17.0,197.0,-4000.0,-4000.0,-424.0,1077.0
139.0,25.0,-120.0,309.0,-4000.0,-4000.0,-585.0,1533.0
-337.0,42.0,-80.0,171.0,-4000.0,-4000.0,-791.0,1411.0
-294.0,25.0,-31.0,-250.0,-4000.0,-4000.0,-607.0,-34.0
-392.0,-20.0,-107.0,-479.0,-4000.0,-3698.0,-290.0,-1176.0
-777.0,-31.0,-64.0,-659.0,-4000.0,-3323.0,-320.0,-455.0
-936.0,-24.0,-36.0,-830.0,-4000.0,-2788.0,-294.0,131.0
-1039.0,-63.0,24.0,-571.0,-4000.0,-2353.0,-2.0,228.0
-824.0,-48.0,119.0,-87.0,-4000.0,-2089.0,426.0,203.0
-761.0,-18.0,139.0,38.0,-4000.0,-1461.0,772.0,-659.0
-909.0,-79.0,112.0,-64.0,-4000.0,-932.0,720.0,-1594.0
-457.0,-36.0,95.0,-19.0,-4000.0,-710.0,1060.0,-1239.0
-150.0,12.0,-62.0,87.0,-4000.0,-507.0,988.0,-1998.0
-82.0,2.0,-450.0,264.0,-4000.0,-468.0,598.0,-3154.0
90.0,17.0,-681.0,258.0,-4000.0,-419.0,266.0,-2100.0
136.0,-5.0,-481.0,132.0,-4000.0,-342.0,-66.0,-1772.0
92.0,2.0,130.0,98.0,-3754.0,-394.0,67.0,-23.0
53.0,52.0,642.0,67.0,-3250.0,-375.0,-84.0,1859.0
98.0,93.0,306.0,-91.0,-3250.0,-442.0,35.0,1789.0
243.0,117.0,-352.0,-241.0,-3408.0,-729.0,290.0,1846.0
306.0,146.0,-102.0,-107.0,-3197.0,-1075.0,427.0,1533.0
373.0,175.0,659.0,144.0,-3079.0,-1379.0,359.0,1521.0
314.0,124.0,968.0,236.0,-3262.0,-1396.0,38.0,1112.0
243.0,68.0,1243.0,310.0,-3929.0,-1005.0,-244.0,308.0
220.0,12.0,1249.0,345.0,-4000.0,-537.0,-412.0,491.0
200.0,-2.0,728.0,245.0,-4000.0,-398.0,-359.0,-124.0
200.0,-20.0,231.0,146.0,-4000.0,-881.0,-501.0,-620.0
163.0,-52.0,-338.0,16.0,-4000.0,-2274.0,-907.0,254.0
164.0,-39.0,-564.0,-95.0,-3908.0,-3193.0,-1380.0,-1497.0
145.0,-68.0,-612.0,-76.0,-3172.0,-3698.0,-1168.0,-2193.0
122.0,-83.0,-454.0,-13.0,-2472.0,-4000.0,-475.0,-1038.0
86.0,-81.0,-78.0,-17.0,-1750.0,-3453.0,529.0,295.0
67.0,-74.0,-18.0,-26.0,-1369.0,-2620.0,720.0,1150.0
21.0,-92.0,-219.0,-30.0,-323.0,-1290.0,-273.0,269.0
32.0,-84.0,-1944.0,-89.0,1332.0,758.0,-1266.0,-423.0
36.0,-109.0,-3730.0,-88.0,2320.0,3280.0,-2107.0,-224.0
-13.0,-154.0,-2916.0,-52.0,3410.0,4000.0,-3013.0,1272.0
7.0,-74.0,-2147.0,27.0,4000.0,4000.0,-4000.0,882.0
-67.0,-14.0,-869.0,155.0,4000.0,4000.0,-3969.0,1128.0
-113.0,0.0,2130.0,146.0,4000.0,4000.0,-2905.0,1064.0
-89.0,43.0,3119.0,29.0,4000.0,4000.0,-1011.0,772.0
-136.0,40.0,2783.0,-57.0,4000.0,4000.0,126.0,1411.0
-112.0,9.0,1639.0,-45.0,4000.0,4000.0,-211.0,1045.0
-66.0,20.0,541.0,28.0,4000.0,4000.0,-211.0,988.0
-17.0,16.0,982.0,102.0,4000.0,4000.0,-408.0,876.0
79.0,3.0,1119.0,207.0,4000.0,4000.0,-728.0,851.0
155.0,-26.0,695.0,255.0,4000.0,4000.0,-204.0,331.0
214.0,-48.0,317.0,164.0,4000.0,4000.0,427.0,286.0
178.0,-52.0,-342.0,56.0,4000.0,4000.0,65.0,304.0
123.0,-89.0,-610.0,17.0,4000.0,4000.0,-151.0,308.0
109.0,-105.0,-338.0,22.0,4000.0,4000.0,245.0,290.0
130.0,-71.0,187.0,-1.0,4000.0,4000.0,368.0,88.0
269.0,-36.0,467.0,-29.0,4000.0,4000.0,359.0,8.0
424.0,16.0,506.0,-48.0,4000.0,4000.0,637.0,-169.0
320.0,41.0,341.0,-52.0,4000.0,4000.0,759.0,-254.0
118.0,8.0,-171.0,-19.0,4000.0,4000.0,441.0,-908.0
-20.0,-19.0,-489.0,35.0,2047.0,4000.0,284.0,-1206.0
-193.0,-11.0,-505.0,93.0,-474.0,4000.0,119.0,-1318.0
-268.0,-24.0,-318.0,127.0,-2421.0,3148.0,-188.0,-1274.0
-296.0,-33.0,-450.0,74.0,-4000.0,1059.0,281.0,-716.0
-295.0,24.0,-389.0,-21.0,-4000.0,-1242.0,1390.0,-490.0
-254.0,95.0,-393.0,-44.0,-4000.0,-3518.0,1731.0,84.0
-118.0,147.0,-490.0,-67.0,-4000.0,-4000.0,930.0,597.0
33.0,168.0,-242.0,-116.0,-4000.0,-4000.0,334.0,794.0
51.0,114.0,-408.0,-174.0,-4000.0,-4000.0,203.0,1077.0
-118.0,38.0,-499.0,-211.0,-4000.0,-4000.0,557.0,1177.0
-77.0,18.0,-490.0,-196.0,-4000.0,-4000.0,1512.0,848.0
204.0,16.0,-487.0,-159.0,-4000.0,-4000.0,1856.0,-1049.0
212.0,-50.0,-369.0,-148.0,-4000.0,-4000.0,1854.0,-2759.0
281.0,-127.0,-297.0,-140.0,-4000.0,-4000.0,1337.0,-2244.0
521.0,-145.0,-122.0,-126.0,-4000.0,-3724.0,211.0,-869.0
368.0,-165.0,61.0,-76.0,-4000.0,-3116.0,-1250.0,112.0
195.0,-156.0,238.0,-61.0,-4000.0,-3659.0,-1749.0,515.0
465.0,-200.0,263.0,-72.0,-4000.0,-3749.0,-1187.0,556.0
183.0,-234.0,230.0,-15.0,-4000.0,-3813.0,-1136.0,285.0
-315.0,-234.0,222.0,-38.0,-4000.0,-4000.0,-855.0,190.0
-615.0,-222.0,172.0,-72.0,-3661.0,-4000.0,-138.0,425.0
-737.0,-125.0,160.0,-107.0,-3079.0,-4000.0,311.0,434.0
-620.0,-66.0,-86.0,-110.0,-4000.0,-4000.0,759.0,583.0
-592.0,9.0,-106.0,-105.0,-3969.0,-4000.0,812.0,409.0
-407.0,60.0,228.0,-57.0,-2209.0,-4000.0,-555.0,279.0
-354.0,117.0,315.0,24.0,-380.0,-4000.0,-1462.0,499.0
-378.0,156.0,369.0,38.0,1970.0,-3840.0,-2017.0,1071.0
-392.0,168.0,410.0,102.0,4000.0,-2235.0,-2169.0,1091.0
-128.0,179.0,573.0,158.0,4000.0,-2463.0,-1462.0,336.0
195.0,160.0,662.0,310.0,4000.0,-2856.0,-772.0,119.0
308.0,173.0,318.0,583.0,4000.0,-3243.0,-251.0,-324.0
250.0,195.0,-59.0,458.0,4000.0,-2791.0,238.0,-395.0
-138.0,163.0,-283.0,28.0,4000.0,-1265.0,1406.0,-73.0
-307.0,146.0,-434.0,-134.0,998.0,1266.0,1705.0,139.0
-146.0,83.0,-637.0,-245.0,856.0,4000.0,1119.0,83.0
25.0,1.0,-746.0,-227.0,4000.0,4000.0,620.0,-42.0
30.0,-26.0,-672.0,-45.0,4000.0,4000.0,1315.0,227.0
-9.0,-23.0,-681.0,6.0,4000.0,4000.0,2179.0,308.0
112.0,34.0,-673.0,7.0,4000.0,4000.0,1605.0,393.0
346.0,37.0,-393.0,-22.0,4000.0,1006.0,-120.0,409.0
424.0,56.0,374.0,-112.0,4000.0,-1115.0,-1991.0,89.0
322.0,60.0,2094.0,-155.0,4000.0,-2119.0,-2369.0,-94.0
175.0,55.0,2941.0,-120.0,4000.0,-2073.0,-1848.0,156.0
-110.0,38.0,964.0,-255.0,4000.0,-836.0,-613.0,290.0
-366.0,70.0,-841.0,-253.0,4000.0,-289.0,309.0,170.0
-437.0,138.0,-380.0,-65.0,4000.0,201.0,551.0,39.0
-388.0,90.0,305.0,23.0,4000.0,-107.0,144.0,8.0
-323.0,59.0,-856.0,-21.0,4000.0,-1161.0,-1050.0,-27.0
-213.0,89.0,-2151.0,-86.0,4000.0,-94.0,-1189.0,1.0
-111.0,108.0,-2188.0,-80.0,4000.0,2447.0,-410.0,105.0
-36.0,77.0,-2210.0,-175.0,2502.0,3808.0,1158.0,204.0
98.0,95.0,-1917.0,-255.0,532.0,3345.0,2485.0,277.0
134.0,145.0,-1700.0,-197.0,-1366.0,2775.0,2226.0,195.0
82.0,152.0,-562.0,-109.0,-2822.0,2447.0,2375.0,87.0
172.0,189.0,337.0,-165.0,-3107.0,1573.0,2579.0,-183.0
260.0,176.0,402.0,-120.0,-3753.0,1547.0,1996.0,-315.0
250.0,125.0,771.0,32.0,-4000.0,1601.0,954.0,-148.0
211.0,19.0,958.0,18.0,-4000.0,1417.0,386.0,-19.0
119.0,-131.0,1432.0,42.0,-4000.0,1071.0,533.0,147.0
110.0,-177.0,1314.0,4.0,-4000.0,-94.0,-190.0,195.0
108.0,-118.0,903.0,-41.0,-4000.0,-409.0,203.0,94.0
147.0,-24.0,476.0,13.0,-4000.0,-743.0,2321.0,50.0
269.0,31.0,429.0,62.0,-4000.0,-423.0,3086.0,43.0
216.0,41.0,567.0,19.0,-4000.0,207.0,2420.0,0.0
146.0,115.0,571.0,-100.0,-4000.0,5.0,2256.0,-46.0
138.0,132.0,676.0,-61.0,-4000.0,301.0,248.0,-157.0
-39.0,40.0,520.0,-95.0,-4000.0,659.0,-1990.0,-182.0
-374.0,-83.0,541.0,-87.0,-4000.0,1157.0,-2934.0,79.0
-508.0,-207.0,663.0,69.0,-4000.0,1380.0,-3131.0,19.0
-148.0,-170.0,719.0,13.0,-4000.0,1901.0,-2028.0,47.0
-77.0,-202.0,484.0,-68.0,-4000.0,2568.0,-2056.0,264.0
315.0,-241.0,70.0,-45.0,-4000.0,3101.0,-1804.0,-227.0
660.0,-296.0,-172.0,-25.0,-4000.0,2373.0,-1308.0,-137.0
447.0,-332.0,-257.0,-61.0,-4000.0,427.0,-986.0,286.0
529.0,-171.0,-450.0,-83.0,-4000.0,6.0,-1441.0,361.0
260.0,-89.0,-433.0,-62.0,-4000.0,351.0,-1527.0,53.0
-65.0,7.0,-304.0,-69.0,-4000.0,514.0,-56.0,-555.0
-676.0,31.0,-401.0,-96.0,-4000.0,386.0,1293.0,-679.0
-631.0,34.0,-415.0,-106.0,-4000.0,339.0,1410.0,-370.0
-75.0,128.0,-255.0,-78.0,-4000.0,115.0,506.0,-120.0
-110.0,132.0,-89.0,-8.0,-4000.0,-189.0,620.0,-465.0
127.0,76.0,-94.0,42.0,-4000.0,-57.0,921.0,-655.0
291.0,-2.0,-37.0,88.0,-4000.0,329.0,693.0,-207.0
102.0,-34.0,75.0,95.0,-4000.0,492.0,494.0,220.0
29.0,30.0,-4.0,88.0,-4000.0,361.0,877.0,-3.0
-63.0,129.0,-557.0,123.0,-4000.0,115.0,1214.0,116.0
-506.0,160.0,-943.0,164.0,-4000.0,-323.0,1540.0,220.0
-844.0,162.0,-976.0,155.0,-4000.0,-331.0,1788.0,-68.0
-331.0,151.0,-1081.0,132.0,-4000.0,-76.0,1592.0,89.0
79.0,125.0,-651.0,203.0,-3663.0,280.0,1098.0,62.0
538.0,106.0,38.0,191.0,-3148.0,266.0,593.0,174.0
1065.0,-11.0,683.0,115.0,-2676.0,-25.0,608.0,294.0
627.0,-27.0,1088.0,19.0,-2231.0,-43.0,628.0,222.0
269.0,75.0,657.0,-30.0,-1898.0,-245.0,702.0,131.0
-18.0,108.0,-450.0,-44.0,-1439.0,-526.0,1019.0,434.0
-209.0,117.0,-1088.0,-119.0,-1078.0,-786.0,2252.0,312.0
-277.0,99.0,-971.0,-67.0,-797.0,-835.0,3607.0,-389.0
-295.0,34.0,-637.0,11.0,-573.0,-786.0,4000.0,-12.0
-246.0,110.0,-429.0,-41.0,-124.0,-663.0,3917.0,406.0
-64.0,170.0,-563.0,-130.0,277.0,-705.0,3168.0,92.0
481.0,21.0,-313.0,-94.0,367.0,-939.0,2309.0,-614.0
447.0,-131.0,-59.0,-9.0,544.0,-1005.0,1183.0,-853.0
-105.0,-253.0,-247.0,27.0,686.0,-976.0,-285.0,-685.0
-441.0,-379.0,-253.0,-59.0,778.0,-932.0,-2062.0,-953.0
-575.0,-570.0,-128.0,-49.0,1026.0,-1135.0,-3520.0,-1204.0
-580.0,-467.0,-25.0,-13.0,1460.0,-1200.0,-4000.0,-1070.0
-361.0,-176.0,-163.0,-81.0,1799.0,-1112.0,-4000.0,-1013.0
-1081.0,-171.0,-193.0,-26.0,2048.0,-1032.0,-4000.0,-614.0
-1950.0,-174.0,-57.0,-40.0,2190.0,-940.0,-3835.0,-475.0
-1175.0,-91.0,101.0,15.0,2296.0,-875.0,-3832.0,-602.0
574.0,-64.0,394.0,18.0,2360.0,-790.0,-4000.0,-259.0
1476.0,-66.0,467.0,-118.0,2360.0,-708.0,-3834.0,-297.0
1558.0,-91.0,850.0,-143.0,2320.0,-555.0,-3196.0,-88.0
1311.0,-35.0,1423.0,142.0,2376.0,-411.0,-3000.0,170.0
495.0,-32.0,1517.0,377.0,2290.0,-198.0,-3118.0,-53.0
172.0,18.0,988.0,144.0,2125.0,-88.0,-2675.0,-220.0
225.0,150.0,527.0,19.0,2124.0,-98.0,-1755.0,-164.0
-5.0,75.0,401.0,-3.0,2085.0,-128.0,-1448.0,-197.0
59.0,101.0,236.0,-145.0,2048.0,-185.0,-1397.0,-275.0
14.0,112.0,256.0,-200.0,1907.0,-228.0,-1011.0,-317.0
-453.0,26.0,112.0,-322.0,1704.0,-409.0,-741.0,-382.0
-893.0,-34.0,-292.0,-454.0,1539.0,-584.0,-581.0,-273.0
-1605.0,-11.0,-385.0,-364.0,1509.0,-716.0,-145.0,-76.0
-2024.0,142.0,-318.0,-251.0,1417.0,-862.0,551.0,123.0
-719.0,256.0,-182.0,-141.0,1454.0,-991.0,1534.0,165.0
580.0,338.0,132.0,96.0,1352.0,-1183.0,2322.0,292.0
438.0,355.0,303.0,228.0,1258.0,-1330.0,2631.0,331.0
935.0,355.0,252.0,280.0,1287.0,-1461.0,2232.0,286.0
1222.0,300.0,85.0,295.0,1247.0,-1550.0,1734.0,149.0
896.0,197.0,-10.0,158.0,1204.0,-1650.0,1548.0,125.0
569.0,-10.0,-20.0,55.0,1070.0,-1766.0,1406.0,170.0
9.0,-224.0,43.0,-21.0,961.0,-1782.0,1463.0,153.0
-388.0,-347.0,-90.0,-241.0,751.0,-1792.0,1548.0,182.0
-1365.0,-347.0,-104.0,-332.0,556.0,-1753.0,1605.0,169.0
-1996.0,-318.0,207.0,-198.0,438.0,-1682.0,1528.0,230.0
-453.0,-364.0,170.0,-52.0,195.0,-1526.0,1526.0,255.0
692.0,-278.0,5.0,0.0,93.0,-1314.0,1418.0,304.0
660.0,-269.0,-312.0,-44.0,65.0,-1005.0,1223.0,339.0
1059.0,-227.0,-393.0,-63.0,184.0,-656.0,921.0,352.0
994.0,-96.0,37.0,69.0,310.0,-260.0,677.0,340.0
1051.0,-34.0,217.0,124.0,395.0,183.0,301.0,336.0
603.0,-39.0,256.0,96.0,660.0,571.0,-116.0,459.0
-973.0,-134.0,546.0,72.0,859.0,1033.0,-60.0,825.0
-4000.0,-228.0,712.0,91.0,953.0,1452.0,-233.0,1118.0
-4000.0,-354.0,511.0,93.0,961.0,1759.0,-55.0,1045.0
-4000.0,-281.0,393.0,-3.0,941.0,2084.0,782.0,988.0
-632.0,-74.0,349.0,34.0,902.0,2254.0,824.0,780.0
4000.0,52.0,253.0,54.0,831.0,2319.0,523.0,569.0
4000.0,113.0,183.0,81.0,758.0,2308.0,551.0,202.0
4000.0,134.0,80.0,128.0,672.0,2124.0,260.0,-549.0
3591.0,139.0,3.0,116.0,594.0,1872.0,391.0,-824.0
2976.0,186.0,-13.0,150.0,457.0,1518.0,995.0,-489.0
3432.0,239.0,-56.0,167.0,532.0,947.0,1332.0,15.0
2390.0,217.0,-150.0,171.0,749.0,272.0,1143.0,-168.0
1494.0,197.0,-263.0,150.0,790.0,-403.0,772.0,-457.0
-706.0,190.0,-328.0,163.0,831.0,-940.0,570.0,-269.0
-1882.0,319.0,-350.0,158.0,920.0,-1253.0,-542.0,-3.0
-2484.0,451.0,-375.0,154.0,1018.0,-1381.0,-2405.0,331.0
-1846.0,439.0,-350.0,150.0,929.0,-1440.0,-3727.0,414.0
-850.0,424.0,-385.0,96.0,823.0,-1437.0,-3538.0,528.0
-1137.0,449.0,-425.0,39.0,822.0,-1387.0,-2288.0,434.0
-1482.0,338.0,-450.0,3.0,823.0,-1261.0,-1397.0,206.0
-1866.0,114.0,-350.0,-30.0,837.0,-1053.0,441.0,230.0
-2010.0,-10.0,-200.0,-29.0,724.0,-765.0,1467.0,224.0
-2151.0,99.0,-212.0,80.0,686.0,-397.0,844.0,148.0
-1365.0,148.0,-112.0,352.0,741.0,-110.0,283.0,142.0
-679.0,135.0,13.0,384.0,701.0,104.0,-35.0,181.0
-339.0,144.0,98.0,-46.0,737.0,163.0,111.0,148.0
-750.0,49.0,46.0,-332.0,880.0,119.0,-200.0,124.0
-830.0,-2.0,-1.0,-466.0,784.0,76.0,-207.0,108.0
-589.0,-134.0,82.0,-437.0,725.0,-75.0,-284.0,-5.0
-549.0,-153.0,75.0,-279.0,944.0,-272.0,-213.0,-107.0
305.0,-106.0,61.0,-266.0,1409.0,-513.0,-23.0,-284.0
60.0,-179.0,35.0,-254.0,2057.0,-783.0,-54.0,-590.0
-339.0,-133.0,-5.0,-167.0,2513.0,-1186.0,-40.0,-692.0
651.0,-39.0,-33.0,-45.0,2745.0,-1747.0,-550.0,-692.0
929.0,-104.0,8.0,19.0,2618.0,-2418.0,-802.0,-457.0
477.0,-183.0,85.0,1.0,2448.0,-3440.0,-917.0,-341.0
705.0,-134.0,38.0,-36.0,2231.0,-4000.0,-1128.0,-523.0
660.0,-6.0,-33.0,-9.0,2060.0,-4000.0,-664.0,-274.0
430.0,105.0,-73.0,19.0,2060.0,-4000.0,554.0,16.0
-510.0,93.0,-114.0,-12.0,1907.0,988.0,921.0,7.0
-1300.0,87.0,-147.0,-15.0,1734.0,4000.0,628.0,97.0
-227.0,147.0,-192.0,25.0,1573.0,4000.0,510.0,103.0
1311.0,99.0,-112.0,55.0,1417.0,4000.0,93.0,-146.0
1557.0,63.0,-47.0,52.0,1213.0,4000.0,61.0,-229.0
595.0,151.0,-55.0,22.0,660.0,4000.0,529.0,-130.0
-2374.0,212.0,-26.0,-27.0,143.0,4000.0,1288.0,-137.0
-4000.0,78.0,-33.0,-71.0,-23.0,4000.0,1605.0,-85.0
-3084.0,-38.0,-15.0,-143.0,224.0,4000.0,1640.0,-48.0
2393.0,10.0,-70.0,-190.0,556.0,4000.0,1190.0,-175.0
4000.0,50.0,-133.0,-169.0,641.0,4000.0,-459.0,80.0
4000.0,-46.0,-135.0,-170.0,-227.0,4000.0,-1950.0,112.0
2712.0,-97.0,-145.0,-161.0,-1361.0,4000.0,-2687.0,142.0
1557.0,1.0,-194.0,-103.0,-2016.0,4000.0,-2855.0,583.0
180.0,29.0,-236.0,-90.0,-2598.0,3875.0,-2420.0,361.0
-767.0,-72.0,-275.0,-44.0,-2452.0,3474.0,-1637.0,220.0
477.0,-198.0,-342.0,-9.0,-2212.0,2940.0,-493.0,329.0
1546.0,-176.0,-269.0,-22.0,-2065.0,2254.0,-473.0,340.0
790.0,48.0,-125.0,-44.0,-1498.0,1340.0,248.0,474.0
-737.0,135.0,-11.0,-133.0,-295.0,548.0,1259.0,258.0
-549.0,18.0,59.0,-200.0,618.0,-485.0,563.0,-24.0
1038.0,-40.0,105.0,-184.0,1329.0,-1737.0,1033.0,8.0
522.0,-7.0,309.0,-16.0,2451.0,-2647.0,1214.0,193.0
-1137.0,-77.0,541.0,126.0,3232.0,-2986.0,545.0,-17.0
-1110.0,-145.0,480.0,-2.0,3399.0,-2998.0,587.0,-97.0
-1849.0,-109.0,376.0,-129.0,3476.0,-2791.0,628.0,-22.0
-746.0,-36.0,415.0,-107.0,4000.0,-2406.0,597.0,5.0
530.0,12.0,362.0,-132.0,4000.0,-2007.0,687.0,597.0
36.0,-59.0,250.0,-167.0,4000.0,-1526.0,596.0,870.0
-1365.0,-47.0,107.0,-247.0,4000.0,-1518.0,276.0,751.0
-2254.0,-103.0,-66.0,-278.0,4000.0,-1647.0,178.0,629.0
-2047.0,-181.0,-128.0,-214.0,4000.0,-1461.0,207.0,742.0
-1621.0,-104.0,-171.0,-188.0,4000.0,-1447.0,352.0,947.0
-1300.0,-8.0,-152.0,-44.0,4000.0,-1186.0,390.0,747.0
-750.0,22.0,-89.0,27.0,4000.0,-773.0,137.0,473.0
854.0,46.0,-80.0,81.0,4000.0,-555.0,-17.0,116.0
1559.0,-11.0,-36.0,155.0,3916.0,26.0,-98.0,1.0
2908.0,-52.0,-107.0,118.0,1579.0,207.0,79.0,120.0
2471.0,-34.0,-152.0,102.0,-795.0,296.0,571.0,282.0
-641.0,-158.0,-95.0,85.0,-2676.0,766.0,673.0,413.0
-1782.0,-171.0,-113.0,102.0,-4000.0,764.0,571.0,269.0
123.0,-147.0,-85.0,139.0,-4000.0,1083.0,753.0,66.0
1300.0,-159.0,-2.0,113.0,-4000.0,1227.0,673.0,-104.0
296.0,-85.0,28.0,112.0,-4000.0,933.0,472.0,-168.0
-698.0,99.0,39.0,134.0,-4000.0,551.0,238.0,-148.0
-1357.0,294.0,-12.0,132.0,-4000.0,-172.0,-172.0,-163.0
-128.0,305.0,-110.0,138.0,-4000.0,-988.0,-717.0,-201.0
1634.0,228.0,-79.0,145.0,-4000.0,-2105.0,-1397.0,-248.0
2987.0,53.0,-53.0,85.0,-4000.0,-3763.0,-1258.0,-212.0
3265.0,-231.0,12.0,54.0,-4000.0,-4000.0,-355.0,-132.0
1540.0,-346.0,39.0,10.0,-4000.0,-4000.0,376.0,-104.0
-675.0,-328.0,30.0,-63.0,-4000.0,-4000.0,818.0,-117.0
-2219.0,-398.0,57.0,-48.0,-4000.0,-4000.0,968.0,104.0
-2285.0,-157.0,37.0,-5.0,-4000.0,-4000.0,506.0,384.0
-1762.0,95.0,18.0,47.0,-4000.0,-4000.0,-185.0,383.0
-1882.0,160.0,-36.0,84.0,-4000.0,-4000.0,-124.0,550.0
-1915.0,175.0,-40.0,118.0,-4000.0,-4000.0,303.0,634.0
-1231.0,217.0,-41.0,87.0,-4000.0,-4000.0,225.0,474.0
-771.0,225.0,-45.0,81.0,-4000.0,-4000.0,-98.0,491.0
95.0,150.0,-92.0,123.0,-4000.0,-4000.0,-131.0,385.0
772.0,224.0,-102.0,97.0,-4000.0,-4000.0,-143.0,290.0
680.0,84.0,-32.0,96.0,-4000.0,-4000.0,-211.0,190.0
142.0,-66.0,-43.0,-3.0,-4000.0,-4000.0,-211.0,119.0
33.0,-99.0,-44.0,-171.0,-4000.0,-4000.0,-222.0,99.0
-20.0,-79.0,-32.0,-260.0,-4000.0,-4000.0,-397.0,89.0
-118.0,-36.0,-125.0,-242.0,-1528.0,-4000.0,-517.0,169.0
994.0,7.0,-165.0,-224.0,458.0,-4000.0,-666.0,145.0
2597.0,68.0,-107.0,-233.0,1930.0,-3571.0,-1038.0,235.0
3495.0,32.0,-169.0,-180.0,3363.0,-2547.0,-1063.0,249.0
2198.0,74.0,-300.0,-171.0,4000.0,-1550.0,-811.0,196.0
143.0,15.0,-447.0,-180.0,4000.0,-607.0,-477.0,61.0
-345.0,-4.0,-529.0,-102.0,4000.0,-120.0,246.0,-72.0
1840.0,135.0,-458.0,26.0,4000.0,457.0,637.0,-227.0
2715.0,89.0,-355.0,122.0,4000.0,1083.0,758.0,-518.0
725.0,26.0,-203.0,156.0,4000.0,1669.0,1184.0,-521.0
624.0,-22.0,44.0,128.0,4000.0,2293.0,1189.0,-512.0
1959.0,-101.0,438.0,158.0,4000.0,2888.0,702.0,-415.0
-641.0,-20.0,866.0,341.0,4000.0,3463.0,767.0,-370.0
-4000.0,8.0,988.0,465.0,4000.0,3660.0,637.0,-456.0
-4000.0,99.0,754.0,400.0,4000.0,3914.0,-373.0,-350.0
-4000.0,199.0,533.0,351.0,4000.0,3987.0,-1136.0,-265.0
-3693.0,225.0,331.0,236.0,4000.0,3900.0,-729.0,-441.0
-2031.0,258.0,270.0,46.0,4000.0,4000.0,571.0,-524.0
-2309.0,114.0,270.0,-34.0,4000.0,4000.0,467.0,-370.0
-1430.0,124.0,253.0,-76.0,4000.0,4000.0,-26.0,-422.0
-1027.0,135.0,193.0,-161.0,4000.0,4000.0,-338.0,-315.0
-714.0,93.0,73.0,-158.0,4000.0,4000.0,-657.0,-213.0
-807.0,170.0,29.0,156.0,2683.0,4000.0,10.0,-265.0
-1019.0,189.0,-6.0,220.0,2254.0,4000.0,661.0,-254.0
-258.0,160.0,2.0,-421.0,2760.0,4000.0,954.0,-423.0
920.0,87.0,-35.0,-818.0,3682.0,4000.0,538.0,-529.0
1791.0,79.0,-8.0,-715.0,4000.0,4000.0,-45.0,-415.0
2157.0,128.0,28.0,-571.0,4000.0,4000.0,-475.0,-267.0
2325.0,102.0,13.0,-296.0,4000.0,4000.0,-542.0,-158.0
2222.0,-1.0,-101.0,-152.0,4000.0,3705.0,-489.0,-228.0
1689.0,-39.0,-242.0,64.0,4000.0,3329.0,-481.0,-605.0
1297.0,-76.0,-271.0,303.0,4000.0,2840.0,-455.0,-620.0
2222.0,-176.0,-334.0,270.0,4000.0,2512.0,-351.0,-202.0
3378.0,-264.0,-356.0,146.0,4000.0,2189.0,135.0,-180.0
2453.0,-310.0,-324.0,-6.0,4000.0,1917.0,111.0,-142.0
1559.0,-264.0,-263.0,-76.0,4000.0,1703.0,282.0,-148.0
1030.0,-215.0,-242.0,-109.0,4000.0,1474.0,432.0,-87.0
-93.0,-223.0,-222.0,-55.0,4000.0,1344.0,439.0,181.0
1557.0,-222.0,-132.0,-49.0,4000.0,1287.0,637.0,-177.0
4000.0,-163.0,37.0,-228.0,4000.0,1344.0,1092.0,-549.0
4000.0,-81.0,225.0,-99.0,1995.0,1409.0,1705.0,-583.0
1701.0,-38.0,164.0,48.0,635.0,1474.0,1548.0,-221.0
-2370.0,-42.0,-69.0,-147.0,-411.0,1466.0,750.0,66.0
-4000.0,-98.0,-61.0,-109.0,-2316.0,1340.0,-107.0,260.0
-4000.0,-137.0,3.0,-66.0,-4000.0,1248.0,-1173.0,162.0
-4000.0,-129.0,-28.0,-134.0,-4000.0,1051.0,-2211.0,-348.0
-4000.0,-181.0,28.0,-13.0,-4000.0,831.0,-2008.0,-50.0
-2957.0,-209.0,20.0,104.0,-4000.0,743.0,-1201.0,-59.0
-2306.0,-166.0,18.0,295.0,-4000.0,571.0,15.0,-123.0
-1772.0,-148.0,14.0,295.0,-4000.0,541.0,881.0,-180.0
-1882.0,-181.0,9.0,310.0,-4000.0,441.0,779.0,-715.0
-1475.0,-118.0,5.0,368.0,-4000.0,309.0,1254.0,-586.0
-946.0,82.0,-33.0,199.0,-4000.0,132.0,1194.0,-557.0
-509.0,269.0,-76.0,110.0,-4000.0,106.0,725.0,-605.0
504.0,347.0,-150.0,-10.0,-4000.0,101.0,897.0,-482.0
994.0,328.0,-217.0,-75.0,-4000.0,42.0,101.0,-301.0
2067.0,381.0,-263.0,-224.0,-3521.0,127.0,-731.0,-33.0
3573.0,335.0,-251.0,-265.0,-4000.0,113.0,-849.0,120.0
4000.0,300.0,-218.0,-308.0,-3856.0,8.0,-1163.0,202.0
4000.0,270.0,-255.0,-418.0,-3628.0,-227.0,-1181.0,344.0
3822.0,176.0,-265.0,-307.0,-2664.0,-169.0,-1043.0,432.0
2549.0,184.0,-72.0,-114.0,-1163.0,-98.0,-862.0,851.0
870.0,163.0,109.0,77.0,-1782.0,-323.0,-723.0,1326.0
-224.0,125.0,183.0,169.0,-1833.0,-440.0,-685.0,526.0
-1170.0,56.0,207.0,251.0,-1072.0,-450.0,-668.0,58.0
-1752.0,-49.0,131.0,252.0,641.0,-463.0,-410.0,-141.0
-2725.0,-188.0,17.0,199.0,3269.0,-485.0,183.0,-545.0
-2826.0,-181.0,15.0,109.0,4000.0,-613.0,838.0,-334.0
-2761.0,-174.0,128.0,-31.0,4000.0,-816.0,883.0,-362.0
-2256.0,-258.0,271.0,-76.0,4000.0,-790.0,877.0,-422.0
-1286.0,-310.0,318.0,-109.0,4000.0,-656.0,1532.0,-540.0
-966.0,-303.0,189.0,-282.0,4000.0,-710.0,1908.0,-360.0
-321.0,-142.0,164.0,-305.0,4000.0,-751.0,1406.0,-295.0
888.0,52.0,202.0,4.0,4000.0,-517.0,470.0,-350.0
1450.0,130.0,238.0,500.0,4000.0,-297.0,-615.0,-350.0
1214.0,68.0,199.0,663.0,4000.0,-358.0,-3106.0,-398.0
811.0,0.0,114.0,223.0,4000.0,-399.0,-4000.0,-357.0
130.0,20.0,77.0,-10.0,4000.0,-541.0,-3916.0,-252.0
-238.0,82.0,33.0,-72.0,4000.0,-716.0,-1851.0,37.0
-675.0,102.0,27.0,-12.0,4000.0,-672.0,714.0,-43.0
-691.0,67.0,-54.0,0.0,4000.0,-816.0,2114.0,-223.0
-549.0,49.0,-84.0,-230.0,4000.0,-940.0,1801.0,-284.0
-553.0,118.0,-102.0,-255.0,4000.0,-816.0,1528.0,-84.0
-300.0,199.0,-125.0,-218.0,4000.0,-737.0,1345.0,63.0
-518.0,217.0,-145.0,-285.0,4000.0,-546.0,-37.0,136.0
55.0,224.0,-206.0,-418.0,4000.0,-354.0,-1120.0,243.0
660.0,263.0,-232.0,-393.0,4000.0,-232.0,101.0,178.0
725.0,241.0,-230.0,-393.0,4000.0,-144.0,968.0,159.0
1384.0,142.0,-120.0,-249.0,4000.0,-47.0,319.0,126.0
1365.0,28.0,-97.0,-62.0,4000.0,-182.0,58.0,206.0
778.0,-145.0,-97.0,-72.0,3606.0,-340.0,-50.0,261.0
412.0,-230.0,-23.0,-46.0,1982.0,-416.0,-379.0,163.0
6.0,-239.0,-5.0,-63.0,1189.0,-440.0,-294.0,84.0
-310.0,-296.0,-1.0,-65.0,570.0,-394.0,-26.0,104.0
-374.0,-360.0,21.0,-88.0,-1375.0,-457.0,311.0,82.0
-258.0,-454.0,27.0,-137.0,-3443.0,-416.0,562.0,32.0
-409.0,-462.0,9.0,-129.0,-4000.0,-378.0,303.0,78.0
-431.0,-411.0,-11.0,-36.0,-4000.0,-247.0,172.0,144.0
7.0,-305.0,-50.0,3.0,-4000.0,-217.0,543.0,235.0
308.0,-114.0,5.0,75.0,-4000.0,-338.0,1288.0,282.0
854.0,-70.0,-21.0,144.0,-4000.0,-411.0,2321.0,292.0
1791.0,-125.0,-93.0,193.0,-4000.0,-472.0,3745.0,116.0
1637.0,-86.0,-33.0,207.0,-4000.0,-517.0,3917.0,138.0
994.0,-89.0,-52.0,174.0,-4000.0,-548.0,2255.0,312.0
823.0,-104.0,-77.0,124.0,-4000.0,-489.0,529.0,531.0
-77.0,-3.0,-80.0,66.0,-4000.0,-537.0,-2663.0,935.0
-951.0,-4.0,-26.0,228.0,-4000.0,-511.0,-4000.0,890.0
-1422.0,-113.0,27.0,248.0,-4000.0,-489.0,-4000.0,725.0
-1652.0,-108.0,9.0,207.0,-4000.0,-570.0,-2734.0,531.0
-1324.0,-26.0,3.0,205.0,-4000.0,-546.0,474.0,188.0
-1039.0,-53.0,45.0,142.0,-4000.0,-550.0,1254.0,-17.0
-901.0,-177.0,128.0,73.0,-4000.0,-639.0,1248.0,-14.0
-762.0,-314.0,-17.0,-177.0,-4000.0,-650.0,2322.0,253.0
-60.0,-264.0,-145.0,-291.0,-4000.0,-555.0,3282.0,352.0
127.0,-11.0,-106.0,-175.0,-4000.0,-685.0,2387.0,247.0
357.0,151.0,-99.0,-125.0,-4000.0,-857.0,1528.0,7.0
1030.0,170.0,-93.0,-115.0,-4000.0,-920.0,1007.0,-224.0
1246.0,18.0,-210.0,-18.0,-4000.0,-945.0,248.0,-144.0
1572.0,-244.0,-328.0,-10.0,-4000.0,-831.0,-668.0,80.0
2132.0,-194.0,-203.0,20.0,-3834.0,-529.0,-1570.0,200.0
3674.0,128.0,105.0,64.0,-2277.0,-262.0,-666.0,176.0
4000.0,248.0,246.0,72.0,-539.0,-186.0,7.0,192.0
3367.0,395.0,219.0,80.0,1201.0,-147.0,141.0,203.0
1557.0,572.0,99.0,4.0,1006.0,-358.0,460.0,172.0
-378.0,737.0,24.0,12.0,75.0,-516.0,1119.0,107.0
-1786.0,917.0,42.0,10.0,-1660.0,-375.0,2125.0,90.0
-2126.0,973.0,-1.0,-6.0,-4000.0,-253.0,2486.0,184.0
-2309.0,920.0,114.0,27.0,-4000.0,-88.0,2384.0,275.0
-3218.0,664.0,263.0,27.0,-4000.0,0.0,968.0,531.0
-4000.0,353.0,376.0,-27.0,-4000.0,-8.0,-1440.0,651.0
-4000.0,15.0,466.0,-59.0,-3728.0,94.0,-2302.0,332.0
-4000.0,-297.0,431.0,-8.0,-40.0,259.0,-1962.0,334.0
-3996.0,-527.0,354.0,-30.0,2422.0,413.0,-1051.0,327.0
-3506.0,-698.0,141.0,-110.0,3215.0,687.0,-741.0,252.0
-2955.0,-855.0,-82.0,-99.0,2760.0,831.0,-2251.0,358.0
-2345.0,-901.0,-454.0,62.0,1655.0,738.0,-2675.0,409.0
-1096.0,-765.0,-820.0,100.0,1454.0,496.0,-3520.0,373.0
203.0,-440.0,-414.0,55.0,1920.0,433.0,-3904.0,296.0
1116.0,-65.0,191.0,71.0,2035.0,805.0,-1312.0,596.0
1962.0,200.0,296.0,-9.0,2320.0,945.0,889.0,318.0
2157.0,395.0,370.0,-112.0,3595.0,790.0,1646.0,-183.0
2545.0,530.0,-291.0,-225.0,4000.0,877.0,2387.0,-209.0
2715.0,601.0,-707.0,-157.0,3216.0,896.0,3298.0,-339.0
2597.0,583.0,372.0,-61.0,3020.0,822.0,3429.0,-466.0
2222.0,281.0,541.0,-109.0,3150.0,831.0,2361.0,-453.0
1637.0,-11.0,184.0,-53.0,2630.0,268.0,1899.0,-352.0
1670.0,70.0,436.0,-20.0,1287.0,-59.0,2255.0,-283.0
1500.0,182.0,441.0,-137.0,-139.0,608.0,3411.0,-284.0
929.0,-150.0,-166.0,-206.0,-898.0,449.0,4000.0,-183.0
340.0,-618.0,-1345.0,-128.0,-1129.0,197.0,3151.0,20.0
-193.0,-466.0,-1294.0,-96.0,-746.0,687.0,1288.0,26.0
543.0,-182.0,69.0,-82.0,43.0,795.0,-1571.0,-189.0
2939.0,-66.0,328.0,-82.0,1222.0,953.0,-4000.0,-334.0
4000.0,639.0,336.0,-88.0,2695.0,1018.0,-4000.0,-211.0
3234.0,823.0,695.0,-32.0,3903.0,1063.0,-4000.0,-274.0
2092.0,152.0,630.0,26.0,3707.0,1148.0,-4000.0,-441.0
595.0,-45.0,463.0,74.0,2695.0,1222.0,-4000.0,-230.0
-120.0,-27.0,201.0,38.0,2060.0,1390.0,-475.0,-152.0
-518.0,-248.0,83.0,39.0,1527.0,1352.0,2255.0,13.0
-2439.0,-621.0,50.0,33.0,1380.0,1533.0,2631.0,332.0
-3606.0,-602.0,77.0,63.0,2124.0,1666.0,396.0,668.0
-3760.0,44.0,31.0,67.0,2231.0,1417.0,1314.0,961.0
-3941.0,460.0,-27.0,11.0,1453.0,1313.0,2643.0,932.0
-3506.0,699.0,172.0,23.0,1733.0,1329.0,1931.0,569.0
-3022.0,294.0,-173.0,-2.0,1466.0,1247.0,2101.0,176.0
-2320.0,-375.0,-1229.0,-32.0,1026.0,1148.0,1605.0,13.0
-763.0,-641.0,-1813.0,-53.0,967.0,1026.0,1334.0,-292.0
-127.0,-663.0,-1127.0,-18.0,725.0,1062.0,1602.0,-466.0
561.0,-364.0,-101.0,-13.0,485.0,929.0,1711.0,-273.0
1754.0,-106.0,858.0,16.0,-66.0,888.0,1640.0,-334.0
2922.0,94.0,1197.0,62.0,-234.0,947.0,954.0,-824.0
4000.0,18.0,415.0,41.0,-644.0,719.0,74.0,-999.0
2911.0,-125.0,166.0,40.0,-991.0,667.0,-1051.0,-1105.0
1498.0,-19.0,337.0,-28.0,-2094.0,400.0,-1819.0,-1104.0
683.0,652.0,450.0,-20.0,-3018.0,71.0,-1702.0,-985.0
-1430.0,1526.0,559.0,-10.0,-2483.0,-120.0,-1076.0,-1111.0
-1282.0,1571.0,191.0,-42.0,-1992.0,-423.0,-811.0,-1070.0
103.0,717.0,-651.0,22.0,-1442.0,-643.0,-1006.0,-1013.0
-473.0,586.0,-1760.0,13.0,-326.0,-881.0,-1206.0,-844.0
249.0,1258.0,-1427.0,20.0,876.0,-1290.0,-1323.0,-720.0
2015.0,1645.0,-75.0,-5.0,1344.0,-1814.0,-1572.0,-620.0
2343.0,1580.0,878.0,-10.0,1733.0,-2400.0,-1513.0,-452.0
1240.0,1071.0,1314.0,103.0,2308.0,-2402.0,-233.0,-390.0
-492.0,382.0,-270.0,95.0,2972.0,-2156.0,1190.0,-417.0
-2545.0,-876.0,-1362.0,10.0,3558.0,-2403.0,2384.0,-382.0
-3675.0,-1802.0,-1072.0,-19.0,3989.0,-2185.0,372.0,-188.0
-2761.0,-196.0,316.0,-26.0,3916.0,-2144.0,-4000.0,7.0
-2370.0,2168.0,2665.0,-11.0,3903.0,-2221.0,-4000.0,41.0
-2708.0,1553.0,3436.0,34.0,4000.0,-2102.0,-4000.0,-64.0
-2611.0,-1702.0,2924.0,31.0,4000.0,-1896.0,-1917.0,-197.0
-2372.0,-2288.0,1704.0,-7.0,3982.0,-1075.0,2647.0,-189.0
-2350.0,-1932.0,523.0,-15.0,3904.0,-466.0,2843.0,46.0
-1951.0,-1444.0,-537.0,-29.0,4000.0,-206.0,1270.0,228.0
-1698.0,82.0,-1695.0,16.0,3812.0,-297.0,1280.0,369.0
-631.0,-1667.0,-3689.0,85.0,3281.0,-436.0,1137.0,587.0
163.0,-4000.0,-4000.0,36.0,4000.0,-358.0,109.0,719.0
281.0,-4000.0,-2216.0,62.0,4000.0,-419.0,-247.0,772.0
855.0,-1718.0,546.0,75.0,4000.0,-383.0,12.0,735.0
854.0,4000.0,1314.0,16.0,4000.0,-79.0,506.0,798.0
973.0,4000.0,1639.0,38.0,4000.0,77.0,236.0,882.0
1319.0,4000.0,1822.0,47.0,4000.0,170.0,-241.0,882.0
1875.0,4000.0,830.0,25.0,4000.0,441.0,-112.0,1012.0
2256.0,900.0,-971.0,-14.0,4000.0,498.0,7.0,1156.0
2288.0,-4000.0,-763.0,-42.0,4000.0,498.0,123.0,1346.0
2663.0,-4000.0,1084.0,-78.0,4000.0,169.0,315.0,1595.0
2809.0,-4000.0,1639.0,-140.0,4000.0,-415.0,616.0,1728.0
2585.0,-3913.0,1310.0,-218.0,4000.0,-737.0,359.0,1663.0
2015.0,-1552.0,280.0,-248.0,3208.0,-1330.0,-1.0,1372.0
1045.0,-4000.0,-202.0,-206.0,2516.0,-2209.0,-226.0,955.0
-23.0,-4000.0,-696.0,-171.0,1800.0,-2284.0,-161.0,645.0
340.0,-4000.0,-1862.0,-130.0,1051.0,-1821.0,181.0,396.0
3884.0,-4000.0,-1648.0,-106.0,302.0,-1821.0,380.0,258.0
4000.0,-1962.0,-596.0,-143.0,-456.0,-1799.0,124.0,119.0
4000.0,-551.0,-425.0,-116.0,-1426.0,-2026.0,-306.0,-9.0
2976.0,-2615.0,-379.0,-68.0,-2318.0,-1949.0,-212.0,-194.0
-489.0,-1268.0,-930.0,-76.0,-2806.0,-1372.0,135.0,-370.0
-3720.0,-2009.0,-1732.0,-22.0,-3321.0,-2315.0,608.0,-366.0
-4000.0,-4000.0,-1476.0,128.0,-3856.0,-3507.0,480.0,-301.0
-4000.0,-4000.0,-711.0,197.0,-4000.0,-3323.0,-52.0,-180.0
-4000.0,-4000.0,429.0,121.0,-4000.0,-2725.0,-189.0,-204.0
-4000.0,-3859.0,624.0,40.0,-4000.0,-1053.0,129.0,-338.0
-4000.0,3844.0,526.0,-37.0,-4000.0,953.0,404.0,-440.0
-4000.0,4000.0,337.0,-104.0,-4000.0,2940.0,407.0,-107.0
-4000.0,4000.0,265.0,-92.0,-4000.0,4000.0,464.0,784.0
-2483.0,4000.0,772.0,0.0,-4000.0,4000.0,403.0,1045.0
-681.0,4000.0,1174.0,50.0,-4000.0,4000.0,211.0,329.0
595.0,-1537.0,1444.0,-22.0,-4000.0,4000.0,145.0,39.0
1189.0,-4000.0,1171.0,-76.0,-4000.0,4000.0,281.0,536.0
1755.0,464.0,701.0,-7.0,-4000.0,4000.0,404.0,677.0
1832.0,4000.0,272.0,5.0,-4000.0,4000.0,571.0,235.0
2127.0,4000.0,-72.0,-9.0,-4000.0,4000.0,504.0,-781.0
2198.0,2463.0,-702.0,81.0,-4000.0,4000.0,197.0,-1925.0
2287.0,-3011.0,-1193.0,32.0,-4000.0,4000.0,123.0,-2694.0
2024.0,-4000.0,-645.0,-69.0,-4000.0,3007.0,90.0,-3655.0
1999.0,-4000.0,37.0,-76.0,-4000.0,669.0,116.0,-3844.0
2080.0,-4000.0,331.0,-64.0,-4000.0,994.0,89.0,-2050.0
1702.0,-4000.0,179.0,35.0,-4000.0,1018.0,48.0,-449.0
1950.0,-4000.0,-112.0,2.0,-4000.0,2230.0,373.0,479.0
1937.0,-4000.0,-334.0,-63.0,-4000.0,4000.0,543.0,1281.0
1690.0,-4000.0,-1273.0,-84.0,-4000.0,4000.0,433.0,620.0
1450.0,-4000.0,-1779.0,-104.0,-4000.0,4000.0,310.0,621.0
1108.0,-4000.0,-1353.0,-55.0,-4000.0,870.0,122.0,404.0
633.0,-3938.0,-425.0,-33.0,-4000.0,-4000.0,93.0,516.0
281.0,1142.0,787.0,41.0,-4000.0,-4000.0,144.0,2437.0
-109.0,4000.0,1093.0,120.0,-4000.0,-4000.0,637.0,2754.0
-268.0,4000.0,872.0,178.0,-4000.0,-4000.0,1149.0,1586.0
-222.0,4000.0,476.0,181.0,-4000.0,-4000.0,1345.0,1403.0
-418.0,4000.0,663.0,87.0,-4000.0,-4000.0,1539.0,3263.0
-303.0,4000.0,716.0,-30.0,-3408.0,-4000.0,1534.0,3196.0
-285.0,4000.0,318.0,-147.0,-2644.0,-4000.0,1605.0,312.0
-544.0,4000.0,461.0,-67.0,-2029.0,-4000.0,1602.0,-1774.0
-710.0,1006.0,523.0,-13.0,-1463.0,-4000.0,1522.0,-2747.0
-620.0,-920.0,345.0,6.0,-1234.0,-4000.0,1735.0,-3219.0
-360.0,3779.0,-162.0,62.0,-1228.0,-4000.0,1801.0,-4000.0
-229.0,4000.0,-247.0,10.0,-1194.0,-4000.0,1735.0,-4000.0
253.0,2036.0,-303.0,-12.0,-977.0,-4000.0,1194.0,-4000.0
673.0,1803.0,-393.0,14.0,-440.0,-3698.0,249.0,-4000.0
247.0,3380.0,-198.0,0.0,242.0,-3657.0,-159.0,-4000.0
-188.0,811.0,-36.0,3.0,509.0,-2608.0,-729.0,-196.0
-457.0,-3676.0,-62.0,49.0,122.0,-1607.0,-1332.0,4000.0
-637.0,-4000.0,-192.0,81.0,-416.0,-737.0,-1822.0,4000.0
-506.0,-4000.0,-91.0,93.0,-1198.0,-70.0,-2577.0,3535.0
