-359.0,-128.0,872.0,-162.0,538.0,-541.0,-355.0,-2153.0
-253.0,-143.0,3510.0,-293.0,751.0,-15.0,-459.0,695.0
-189.0,-171.0,3185.0,-332.0,953.0,498.0,-550.0,2248.0
-190.0,-128.0,2616.0,-238.0,1032.0,706.0,-542.0,947.0
-86.0,-92.0,964.0,-188.0,1063.0,497.0,-485.0,-1365.0
-5.0,-120.0,306.0,-277.0,1136.0,194.0,-459.0,-3661.0
65.0,-161.0,122.0,-255.0,1124.0,207.0,-449.0,-4000.0
163.0,-196.0,-90.0,-271.0,1058.0,254.0,-384.0,-4000.0
161.0,-190.0,-2888.0,-279.0,1134.0,368.0,-313.0,-4000.0
68.0,-176.0,-4000.0,-227.0,1063.0,348.0,-224.0,-4000.0
-39.0,-314.0,-3290.0,-205.0,722.0,289.0,-149.0,-4000.0
-1.0,-383.0,1690.0,-180.0,285.0,283.0,-25.0,-4000.0
15.0,-272.0,3462.0,-206.0,47.0,321.0,172.0,-4000.0
39.0,-114.0,3072.0,-173.0,-113.0,293.0,200.0,-4000.0
83.0,233.0,2289.0,-116.0,-299.0,311.0,141.0,-4000.0
-75.0,395.0,1574.0,-62.0,-391.0,408.0,219.0,-4000.0
-250.0,263.0,1184.0,-68.0,-534.0,520.0,376.0,-4000.0
27.0,132.0,957.0,-45.0,-772.0,599.0,506.0,-4000.0
245.0,-18.0,1444.0,2.0,-1007.0,571.0,464.0,-4000.0
135.0,-150.0,1110.0,90.0,-1164.0,506.0,325.0,-4000.0
149.0,-210.0,-1468.0,229.0,-1200.0,554.0,54.0,-4000.0
-63.0,-222.0,-1881.0,175.0,-1249.0,788.0,-129.0,-4000.0
-15.0,-171.0,-698.0,99.0,-1449.0,929.0,-88.0,-4000.0
346.0,-136.0,-927.0,122.0,-1600.0,870.0,-98.0,-4000.0
182.0,-54.0,-645.0,122.0,-1638.0,563.0,-51.0,-4000.0
-476.0,80.0,-682.0,60.0,-1560.0,119.0,14.0,-4000.0
-190.0,-4.0,-696.0,75.0,-1446.0,-211.0,90.0,-4000.0
529.0,-76.0,-585.0,109.0,-1552.0,-501.0,93.0,3527.0
190.0,30.0,-622.0,91.0,-1573.0,-660.0,132.0,4000.0
608.0,114.0,-259.0,80.0,-1491.0,-468.0,165.0,4000.0
920.0,111.0,-5.0,173.0,-1463.0,-21.0,33.0,-484.0
660.0,7.0,170.0,280.0,-1849.0,354.0,23.0,-4000.0
668.0,-6.0,166.0,188.0,-2537.0,510.0,-21.0,-4000.0
440.0,78.0,253.0,137.0,-2578.0,921.0,90.0,-4000.0
920.0,216.0,244.0,197.0,-1888.0,1214.0,315.0,-4000.0
1346.0,530.0,318.0,236.0,-1272.0,1136.0,391.0,-4000.0
961.0,1063.0,280.0,244.0,-1052.0,1075.0,415.0,63.0
108.0,1526.0,234.0,248.0,-942.0,563.0,389.0,1012.0
-537.0,1435.0,280.0,238.0,-942.0,220.0,396.0,535.0
-779.0,790.0,280.0,69.0,-967.0,296.0,427.0,1156.0
-974.0,412.0,324.0,8.0,-1077.0,271.0,394.0,666.0
-895.0,309.0,251.0,313.0,-1267.0,276.0,249.0,1049.0
-702.0,221.0,223.0,207.0,-1259.0,243.0,152.0,1338.0
-620.0,-67.0,179.0,-255.0,-1097.0,1.0,119.0,2575.0
-292.0,-781.0,121.0,-164.0,-797.0,15.0,59.0,3487.0
-27.0,-1460.0,124.0,227.0,-523.0,183.0,3.0,4000.0
-128.0,-1840.0,178.0,603.0,-384.0,-130.0,-118.0,4000.0
72.0,-1737.0,179.0,603.0,-409.0,-19.0,-224.0,4000.0
587.0,-1090.0,154.0,524.0,-398.0,-114.0,-198.0,4000.0
1059.0,-483.0,89.0,533.0,-459.0,-234.0,-194.0,4000.0
1234.0,-220.0,130.0,195.0,-679.0,77.0,-81.0,4000.0
1161.0,103.0,250.0,-523.0,-732.0,303.0,73.0,3617.0
656.0,278.0,131.0,-994.0,-730.0,321.0,72.0,2624.0
167.0,160.0,-36.0,-1283.0,-848.0,-20.0,141.0,2237.0
-149.0,84.0,-76.0,-1463.0,-1006.0,126.0,105.0,4000.0
-590.0,121.0,-49.0,-1142.0,-1072.0,219.0,-139.0,4000.0
-1430.0,319.0,7.0,-1109.0,-1449.0,-24.0,-92.0,4000.0
-2403.0,469.0,75.0,-1223.0,-1898.0,-268.0,61.0,4000.0
-2148.0,381.0,51.0,-1114.0,-1978.0,-459.0,-16.0,4000.0
-1231.0,443.0,38.0,-523.0,-1885.0,-237.0,-44.0,4000.0
-673.0,460.0,-47.0,-103.0,-1600.0,-66.0,-154.0,4000.0
-201.0,363.0,-210.0,-906.0,-1491.0,246.0,-402.0,4000.0
237.0,282.0,-125.0,-1245.0,-1756.0,642.0,-666.0,4000.0
424.0,116.0,-52.0,-263.0,-2094.0,673.0,-594.0,4000.0
473.0,58.0,30.0,870.0,-2316.0,311.0,-322.0,4000.0
473.0,207.0,26.0,1601.0,-2044.0,115.0,-221.0,4000.0
473.0,876.0,-76.0,2140.0,-1333.0,-216.0,-44.0,4000.0
397.0,1689.0,-92.0,2387.0,-883.0,-423.0,18.0,4000.0
157.0,3104.0,-80.0,2478.0,-724.0,-493.0,34.0,4000.0
127.0,4000.0,-7.0,1827.0,-631.0,-532.0,120.0,4000.0
263.0,2559.0,-49.0,754.0,-477.0,-517.0,283.0,4000.0
222.0,-895.0,-64.0,170.0,-508.0,-423.0,398.0,4000.0
151.0,-2423.0,-14.0,-397.0,-319.0,455.0,506.0,3788.0
131.0,-2080.0,-93.0,-1109.0,562.0,719.0,348.0,3014.0
393.0,-1981.0,-147.0,-1857.0,1462.0,1009.0,-67.0,2689.0
1095.0,-3030.0,-90.0,-1435.0,1995.0,406.0,-15.0,2357.0
2976.0,-2886.0,-68.0,-819.0,2439.0,-30.0,-25.0,2094.0
4000.0,-1968.0,-162.0,-914.0,3074.0,427.0,-87.0,1842.0
3249.0,-1283.0,-179.0,-589.0,3396.0,361.0,-152.0,1704.0
798.0,-765.0,-124.0,-66.0,3102.0,791.0,-440.0,1663.0
44.0,-414.0,-241.0,1045.0,2825.0,445.0,-394.0,1704.0
-2177.0,-118.0,-279.0,1804.0,2748.0,339.0,-79.0,1818.0
-2968.0,-231.0,-188.0,1628.0,2485.0,220.0,183.0,1780.0
-3046.0,-59.0,6.0,1493.0,2060.0,-4.0,409.0,1769.0
-2790.0,-10.0,280.0,1563.0,1704.0,-76.0,433.0,1468.0
-2336.0,143.0,268.0,1928.0,1527.0,-244.0,307.0,1069.0
-2505.0,298.0,99.0,1945.0,1592.0,-318.0,124.0,544.0
-2611.0,372.0,-68.0,1554.0,1669.0,-505.0,32.0,-166.0
-2076.0,541.0,-375.0,915.0,1938.0,-591.0,89.0,-889.0
-1698.0,533.0,-503.0,264.0,2125.0,-875.0,268.0,-1383.0
-1686.0,582.0,-507.0,-1356.0,2374.0,-907.0,233.0,-1558.0
-590.0,550.0,-486.0,-3966.0,2955.0,-1162.0,-22.0,-2063.0
145.0,441.0,-389.0,-4000.0,3461.0,-1396.0,-83.0,-2543.0
854.0,607.0,-239.0,-3954.0,3476.0,-1302.0,-110.0,-2893.0
1254.0,767.0,-86.0,-3144.0,3464.0,-1257.0,-192.0,-3414.0
955.0,338.0,-33.0,-2017.0,3398.0,-940.0,-216.0,-3911.0
778.0,125.0,-9.0,-1370.0,2972.0,-768.0,-90.0,-4000.0
994.0,-26.0,-43.0,-1356.0,2646.0,-668.0,28.0,-4000.0
1124.0,-122.0,7.0,-1133.0,2386.0,-982.0,194.0,-4000.0
1161.0,-64.0,158.0,92.0,1533.0,-1440.0,238.0,-4000.0
1091.0,-106.0,253.0,2140.0,188.0,-1290.0,90.0,-3449.0
863.0,36.0,254.0,3643.0,-751.0,-1550.0,51.0,-2741.0
566.0,215.0,212.0,4000.0,-1508.0,-1461.0,254.0,-2212.0
371.0,485.0,202.0,4000.0,-2250.0,-1701.0,1098.0,-1558.0
583.0,621.0,124.0,4000.0,-1756.0,-2091.0,1800.0,-1339.0
553.0,449.0,71.0,2775.0,-2010.0,-1896.0,1640.0,-1129.0
608.0,280.0,219.0,1144.0,-2664.0,-2144.0,1353.0,-1208.0
660.0,189.0,175.0,-472.0,-2924.0,-2061.0,1158.0,-2193.0
483.0,227.0,-86.0,-1712.0,-3148.0,-1699.0,889.0,-2865.0
232.0,305.0,-98.0,-2713.0,-3001.0,-1381.0,474.0,-2876.0
-60.0,-16.0,64.0,-3619.0,-3148.0,-940.0,74.0,-3060.0
-518.0,-435.0,217.0,-3790.0,-2578.0,-780.0,6.0,-2959.0
-562.0,-414.0,46.0,-3088.0,-1853.0,-722.0,303.0,-2016.0
-185.0,-247.0,-385.0,-1839.0,-967.0,-489.0,375.0,-1856.0
-121.0,-305.0,-596.0,-1044.0,-248.0,-417.0,58.0,-2893.0
-506.0,-358.0,-285.0,-650.0,-2.0,-141.0,-84.0,-2747.0
-647.0,-365.0,252.0,172.0,432.0,180.0,-268.0,-1265.0
-354.0,-310.0,467.0,1080.0,428.0,480.0,-331.0,-1018.0
-300.0,-161.0,262.0,1277.0,205.0,896.0,-344.0,-15.0
-43.0,-204.0,-442.0,844.0,538.0,1287.0,-439.0,2054.0
341.0,20.0,-847.0,793.0,1026.0,1669.0,-435.0,2051.0
530.0,855.0,-560.0,1228.0,1787.0,1929.0,-542.0,751.0
683.0,1671.0,-229.0,1631.0,2760.0,2124.0,-620.0,-862.0
608.0,1367.0,-143.0,2851.0,1627.0,2293.0,-701.0,-4000.0
473.0,717.0,-422.0,3111.0,-256.0,2438.0,-711.0,-4000.0
294.0,758.0,-369.0,3423.0,-679.0,2566.0,-542.0,-4000.0
151.0,335.0,24.0,3643.0,-551.0,2577.0,-410.0,-3113.0
111.0,-444.0,134.0,345.0,-1052.0,2629.0,-355.0,-2193.0
-89.0,-1073.0,268.0,-1887.0,-1433.0,2694.0,-359.0,-1691.0
-288.0,-1785.0,212.0,-3545.0,-334.0,2682.0,-522.0,4.0
-313.0,-2627.0,98.0,-4000.0,-269.0,2580.0,-657.0,-370.0
-280.0,-2807.0,37.0,-4000.0,-1915.0,2629.0,-565.0,95.0
-207.0,-2503.0,-33.0,-4000.0,-3586.0,2629.0,-440.0,74.0
-82.0,-2177.0,272.0,-4000.0,-4000.0,2512.0,-485.0,319.0
42.0,-822.0,419.0,-2961.0,-4000.0,2375.0,-808.0,609.0
-25.0,381.0,491.0,150.0,-4000.0,2293.0,-1227.0,556.0
-341.0,1063.0,507.0,2738.0,-4000.0,2189.0,-1201.0,947.0
-418.0,1128.0,336.0,3176.0,-2860.0,1982.0,-410.0,992.0
-303.0,1201.0,385.0,3763.0,-3456.0,1720.0,529.0,1323.0
-295.0,1423.0,381.0,2722.0,-4000.0,1539.0,888.0,1130.0
-31.0,1071.0,263.0,1591.0,-4000.0,1378.0,642.0,1004.0
235.0,941.0,62.0,92.0,-4000.0,1188.0,416.0,802.0
114.0,1063.0,-220.0,-1044.0,-4000.0,1059.0,281.0,700.0
194.0,1308.0,-629.0,-1819.0,-4000.0,837.0,-40.0,612.0
308.0,1319.0,-866.0,-1174.0,-4000.0,677.0,-101.0,564.0
234.0,1097.0,-716.0,533.0,-812.0,563.0,-134.0,671.0
147.0,476.0,-487.0,793.0,4000.0,471.0,-45.0,384.0
-23.0,-108.0,-299.0,1160.0,4000.0,432.0,137.0,108.0
-77.0,-541.0,-200.0,971.0,4000.0,420.0,171.0,-138.0
-178.0,-987.0,-100.0,864.0,4000.0,463.0,225.0,-334.0
-234.0,-1285.0,-68.0,832.0,4000.0,538.0,254.0,-630.0
-315.0,-1519.0,-18.0,699.0,4000.0,641.0,352.0,-1005.0
-341.0,-1522.0,77.0,749.0,4000.0,595.0,367.0,-1469.0
-153.0,-1350.0,150.0,634.0,4000.0,480.0,326.0,-1115.0
108.0,-558.0,229.0,610.0,4000.0,412.0,404.0,-489.0
233.0,373.0,272.0,459.0,4000.0,420.0,368.0,-362.0
220.0,811.0,248.0,433.0,4000.0,233.0,349.0,414.0
194.0,781.0,169.0,287.0,-3054.0,-62.0,254.0,634.0
12.0,500.0,144.0,209.0,-4000.0,-142.0,-13.0,804.0
-159.0,737.0,142.0,88.0,-4000.0,-320.0,-11.0,1372.0
-186.0,1142.0,119.0,67.0,-4000.0,-472.0,77.0,1633.0
-84.0,1063.0,109.0,95.0,-4000.0,-611.0,114.0,2054.0
-29.0,985.0,113.0,69.0,-4000.0,-620.0,236.0,2154.0
-247.0,770.0,186.0,81.0,-4000.0,-611.0,281.0,2354.0
-614.0,381.0,272.0,-54.0,-4000.0,-680.0,237.0,2314.0
-518.0,262.0,318.0,-102.0,-4000.0,-780.0,587.0,2154.0
-171.0,121.0,337.0,-238.0,-4000.0,-932.0,1013.0,1976.0
-116.0,-309.0,337.0,-301.0,-4000.0,-1070.0,1098.0,1346.0
-27.0,-1120.0,333.0,-216.0,-4000.0,-1226.0,989.0,988.0
44.0,-1220.0,309.0,-123.0,-4000.0,-1242.0,759.0,1195.0
76.0,-505.0,248.0,42.0,-4000.0,-1311.0,795.0,1411.0
114.0,-383.0,132.0,178.0,-1638.0,-1330.0,637.0,1390.0
10.0,-286.0,-64.0,242.0,722.0,-1227.0,416.0,1586.0
-64.0,53.0,-72.0,108.0,2165.0,-1070.0,49.0,1704.0
-175.0,41.0,113.0,-80.0,3281.0,-881.0,-54.0,1793.0
-251.0,-5.0,207.0,-183.0,4000.0,-852.0,374.0,1781.0
-86.0,41.0,317.0,-255.0,4000.0,-945.0,131.0,1623.0
120.0,176.0,372.0,-497.0,4000.0,-1140.0,-22.0,1467.0
233.0,251.0,238.0,-1077.0,4000.0,-1330.0,-69.0,1281.0
51.0,233.0,30.0,-1463.0,4000.0,-1452.0,-333.0,1242.0
-207.0,115.0,-46.0,-1427.0,4000.0,-1322.0,-348.0,1091.0
-201.0,-32.0,-9.0,-849.0,4000.0,-1127.0,-507.0,955.0
27.0,-118.0,-20.0,-191.0,4000.0,-1183.0,-642.0,786.0
705.0,-32.0,-145.0,-48.0,3493.0,-1205.0,-666.0,731.0
1036.0,64.0,-179.0,88.0,2907.0,-1249.0,-723.0,692.0
823.0,26.0,-70.0,210.0,3167.0,-1461.0,-826.0,621.0
477.0,29.0,85.0,382.0,3037.0,-1951.0,-723.0,670.0
169.0,25.0,152.0,352.0,1970.0,-2660.0,-598.0,751.0
28.0,28.0,55.0,297.0,-37.0,-2791.0,-607.0,849.0
-359.0,-42.0,11.0,370.0,-2356.0,-1652.0,-855.0,870.0
-737.0,0.0,-91.0,193.0,-4000.0,-450.0,-1096.0,825.0
-896.0,241.0,-161.0,-143.0,-4000.0,-1431.0,-704.0,727.0
-765.0,228.0,-213.0,-458.0,-4000.0,-4000.0,-420.0,513.0
-483.0,241.0,-259.0,-546.0,-4000.0,-4000.0,-546.0,136.0
-302.0,290.0,-230.0,-481.0,-4000.0,-4000.0,-305.0,-146.0
-132.0,217.0,-135.0,-95.0,-4000.0,-4000.0,147.0,-276.0
-10.0,75.0,-113.0,32.0,-4000.0,-4000.0,175.0,-398.0
27.0,-223.0,-283.0,-256.0,-4000.0,-2054.0,-152.0,-411.0
28.0,-495.0,-224.0,-194.0,-4000.0,3463.0,-459.0,-350.0
34.0,-585.0,-129.0,7.0,-253.0,4000.0,-844.0,-301.0
-41.0,-334.0,-210.0,81.0,2695.0,4000.0,-1291.0,-339.0
-52.0,-87.0,-425.0,-2.0,4000.0,4000.0,-1665.0,-482.0
-70.0,-118.0,-511.0,-22.0,4000.0,4000.0,-1977.0,-693.0
72.0,-53.0,-340.0,60.0,4000.0,4000.0,-1887.0,-936.0
342.0,-19.0,-185.0,100.0,4000.0,4000.0,-1228.0,-1058.0
448.0,44.0,-61.0,152.0,4000.0,3785.0,79.0,-1245.0
595.0,55.0,-86.0,76.0,4000.0,1539.0,805.0,-1404.0
408.0,-118.0,-119.0,-27.0,4000.0,-556.0,219.0,-1365.0
99.0,-336.0,-36.0,-29.0,4000.0,-1617.0,-251.0,-1256.0
-28.0,-454.0,21.0,23.0,4000.0,-1880.0,-332.0,-1534.0
-14.0,-125.0,69.0,106.0,4000.0,-2286.0,-475.0,-2385.0
139.0,79.0,105.0,98.0,4000.0,-2138.0,-464.0,-3060.0
188.0,77.0,136.0,157.0,4000.0,-2803.0,-320.0,-3593.0
169.0,138.0,130.0,374.0,4000.0,-3246.0,-285.0,-3923.0
21.0,73.0,137.0,430.0,4000.0,-3439.0,-6.0,-3873.0
-180.0,140.0,107.0,439.0,4000.0,-3698.0,415.0,-3708.0
-268.0,82.0,77.0,442.0,4000.0,-3657.0,832.0,-3333.0
-250.0,43.0,64.0,305.0,4000.0,-2750.0,1199.0,-2876.0
-64.0,105.0,13.0,161.0,4000.0,-2008.0,1475.0,-2100.0
-15.0,124.0,43.0,37.0,4000.0,-1794.0,1540.0,-1534.0
-49.0,160.0,107.0,8.0,4000.0,-1461.0,1137.0,-1439.0
-69.0,150.0,-54.0,-198.0,-3066.0,-1177.0,1129.0,-839.0
-84.0,160.0,-547.0,-328.0,-4000.0,-1387.0,1353.0,-131.0
30.0,125.0,-547.0,-128.0,-4000.0,-1961.0,1801.0,548.0
-99.0,60.0,27.0,-237.0,-4000.0,-2449.0,1931.0,1142.0
-260.0,-59.0,349.0,-314.0,-4000.0,-2510.0,1731.0,2159.0
-547.0,56.0,533.0,-30.0,-4000.0,-2156.0,1658.0,3340.0
-1007.0,126.0,455.0,48.0,-4000.0,-2157.0,1410.0,3848.0
-502.0,-5.0,269.0,50.0,-4000.0,-945.0,1418.0,4000.0
222.0,-68.0,125.0,99.0,-4000.0,701.0,1825.0,4000.0
465.0,-168.0,126.0,87.0,-4000.0,929.0,2036.0,4000.0
841.0,-112.0,248.0,118.0,-4000.0,781.0,1906.0,4000.0
586.0,-35.0,230.0,158.0,-4000.0,425.0,1605.0,4000.0
313.0,-46.0,114.0,183.0,-4000.0,425.0,1092.0,4000.0
134.0,-72.0,-313.0,199.0,-4000.0,684.0,707.0,4000.0
-39.0,-85.0,-609.0,92.0,-4000.0,758.0,637.0,4000.0
-118.0,-88.0,-673.0,43.0,-4000.0,896.0,930.0,4000.0
-162.0,-21.0,-820.0,195.0,-4000.0,1059.0,921.0,4000.0
-108.0,68.0,-731.0,183.0,-4000.0,1315.0,607.0,4000.0
-185.0,75.0,-373.0,-93.0,-4000.0,1645.0,456.0,4000.0
-65.0,85.0,-182.0,-253.0,-4000.0,1531.0,260.0,4000.0
-73.0,112.0,-4.0,-233.0,-4000.0,1417.0,-28.0,4000.0
-19.0,91.0,150.0,-288.0,-4000.0,1325.0,-216.0,4000.0
-209.0,15.0,75.0,-397.0,-4000.0,1247.0,-258.0,3943.0
-654.0,26.0,-102.0,-359.0,-4000.0,1722.0,-489.0,3422.0
-679.0,-5.0,-56.0,-650.0,-4000.0,1722.0,-837.0,2689.0
-215.0,-56.0,356.0,-894.0,-3868.0,1980.0,-1006.0,2314.0
263.0,-87.0,567.0,-225.0,-1012.0,2243.0,-1054.0,1660.0
494.0,-114.0,476.0,141.0,2825.0,2189.0,-1011.0,863.0
538.0,26.0,390.0,93.0,4000.0,2190.0,-811.0,84.0
373.0,27.0,266.0,116.0,4000.0,1917.0,-685.0,-471.0
265.0,8.0,118.0,80.0,4000.0,1722.0,-741.0,-1135.0
129.0,63.0,42.0,144.0,4000.0,1539.0,-717.0,-2295.0
82.0,-35.0,89.0,177.0,4000.0,1482.0,-834.0,-2806.0
53.0,-46.0,84.0,206.0,4000.0,1854.0,-946.0,-3268.0
40.0,0.0,93.0,145.0,4000.0,2428.0,-876.0,-4000.0
4.0,6.0,93.0,102.0,4000.0,2577.0,-737.0,-4000.0
-217.0,-25.0,-82.0,81.0,4000.0,2490.0,-678.0,-4000.0
-396.0,12.0,-91.0,50.0,4000.0,1994.0,-839.0,-4000.0
-428.0,76.0,-93.0,98.0,4000.0,1799.0,-876.0,-4000.0
-207.0,98.0,-101.0,142.0,4000.0,1604.0,-772.0,-4000.0
-85.0,93.0,-5.0,272.0,4000.0,1114.0,-607.0,-4000.0
187.0,84.0,10.0,329.0,4000.0,921.0,-434.0,-4000.0
530.0,120.0,20.0,219.0,4000.0,874.0,-489.0,-4000.0
256.0,167.0,24.0,133.0,4000.0,1018.0,-729.0,-4000.0
-497.0,238.0,39.0,10.0,4000.0,882.0,-1057.0,-4000.0
-388.0,184.0,-6.0,-163.0,4000.0,795.0,-1370.0,-3979.0
180.0,7.0,-193.0,-378.0,4000.0,642.0,-1173.0,-3374.0
281.0,-86.0,-440.0,-680.0,4000.0,528.0,-941.0,-3480.0
697.0,-86.0,-372.0,-586.0,4000.0,441.0,-1587.0,-3840.0
595.0,-14.0,-138.0,-166.0,4000.0,193.0,-2221.0,-3873.0
260.0,20.0,-39.0,-6.0,4000.0,97.0,-1781.0,-3759.0
-85.0,-45.0,23.0,-44.0,961.0,-72.0,-849.0,-3480.0
-388.0,-30.0,51.0,-9.0,-1756.0,-152.0,-6.0,-3527.0
-153.0,53.0,132.0,39.0,-3303.0,-182.0,529.0,-3527.0
-113.0,-70.0,168.0,-5.0,-4000.0,-253.0,474.0,-3527.0
-388.0,-247.0,189.0,-36.0,-4000.0,-277.0,315.0,-3397.0
-513.0,-240.0,263.0,-61.0,-4000.0,-214.0,114.0,-3127.0
-470.0,-209.0,309.0,-69.0,-4000.0,-210.0,-162.0,-2876.0
-361.0,-364.0,154.0,-255.0,-4000.0,-481.0,-298.0,-2716.0
-171.0,-364.0,10.0,-393.0,-4000.0,-780.0,-363.0,-2682.0
-142.0,-188.0,-141.0,-206.0,-4000.0,-1005.0,-351.0,-2605.0
-8.0,-149.0,-267.0,-24.0,-4000.0,-1198.0,-371.0,-2537.0
90.0,25.0,-202.0,-45.0,-4000.0,-1135.0,-424.0,-2319.0
175.0,105.0,-204.0,-40.0,-4000.0,-835.0,-542.0,-2016.0
129.0,15.0,-94.0,-2.0,-4000.0,-500.0,-613.0,-1921.0
-41.0,-80.0,-68.0,-34.0,-4000.0,-275.0,-548.0,-1808.0
1.0,-75.0,-206.0,13.0,-4000.0,-86.0,-378.0,-1504.0
78.0,34.0,-259.0,69.0,-4000.0,-4.0,-262.0,-1240.0
36.0,-75.0,-282.0,73.0,-4000.0,-29.0,-222.0,-947.0
-58.0,-86.0,-311.0,91.0,-4000.0,-74.0,-124.0,-775.0
49.0,-12.0,-694.0,91.0,-4000.0,-262.0,-112.0,-608.0
98.0,54.0,-1137.0,116.0,-4000.0,-362.0,-161.0,-427.0
48.0,73.0,-1297.0,215.0,-4000.0,-489.0,-148.0,-217.0
17.0,40.0,-1403.0,172.0,-4000.0,-607.0,-64.0,21.0
-62.0,36.0,-568.0,67.0,-4000.0,-716.0,74.0,125.0
-357.0,-3.0,573.0,19.0,-4000.0,-867.0,124.0,241.0
-702.0,-3.0,1544.0,-82.0,-4000.0,-861.0,197.0,419.0
-698.0,-21.0,2070.0,-123.0,-4000.0,-900.0,355.0,778.0
-599.0,-10.0,1680.0,-71.0,-4000.0,-1075.0,529.0,1004.0
-469.0,16.0,1375.0,-2.0,-3572.0,-1205.0,677.0,825.0
89.0,70.0,779.0,10.0,-2187.0,-1196.0,738.0,535.0
1051.0,111.0,443.0,60.0,-1703.0,-1196.0,793.0,612.0
1541.0,140.0,234.0,93.0,-1802.0,-1121.0,795.0,881.0
1677.0,233.0,2.0,116.0,-2496.0,-945.0,738.0,846.0
1384.0,282.0,-64.0,215.0,-3237.0,-680.0,693.0,621.0
835.0,241.0,-183.0,305.0,-3586.0,-586.0,635.0,654.0
315.0,162.0,-211.0,335.0,-3604.0,-489.0,608.0,760.0
-103.0,131.0,-258.0,382.0,-3051.0,-240.0,571.0,601.0
-144.0,73.0,-304.0,459.0,-1731.0,-67.0,498.0,237.0
-246.0,17.0,-365.0,455.0,-791.0,244.0,551.0,213.0
-418.0,25.0,-275.0,272.0,-738.0,273.0,607.0,425.0
-589.0,83.0,-343.0,-34.0,-1052.0,152.0,693.0,474.0
-523.0,168.0,-430.0,-293.0,-1820.0,149.0,816.0,409.0
-547.0,170.0,-538.0,-539.0,-2303.0,57.0,930.0,267.0
-607.0,131.0,-480.0,-659.0,-2887.0,153.0,1084.0,266.0
-563.0,91.0,-203.0,-604.0,-3106.0,220.0,1072.0,384.0
-453.0,21.0,15.0,-809.0,-2660.0,311.0,1064.0,473.0
-323.0,-62.0,85.0,-877.0,-2065.0,349.0,995.0,361.0
-306.0,-181.0,28.0,-346.0,-1358.0,319.0,854.0,-1.0
-388.0,-188.0,89.0,-198.0,-1182.0,404.0,684.0,-234.0
-569.0,-146.0,162.0,-120.0,-1064.0,315.0,652.0,-84.0
-453.0,-179.0,315.0,109.0,-1117.0,303.0,816.0,361.0
-457.0,-91.0,356.0,76.0,-1182.0,326.0,883.0,713.0
-628.0,5.0,360.0,199.0,-681.0,368.0,812.0,992.0
-590.0,-1.0,260.0,193.0,310.0,571.0,702.0,1156.0
-73.0,23.0,99.0,236.0,1865.0,771.0,809.0,1308.0
473.0,1.0,124.0,276.0,3297.0,660.0,988.0,1595.0
465.0,-65.0,-143.0,282.0,3428.0,404.0,962.0,1467.0
-372.0,-91.0,-1036.0,260.0,3020.0,376.0,726.0,1411.0
-1025.0,-86.0,-1297.0,183.0,2972.0,368.0,563.0,1468.0
-5.0,-68.0,-222.0,164.0,2581.0,354.0,514.0,1216.0
342.0,-65.0,541.0,87.0,2419.0,441.0,416.0,860.0
1181.0,25.0,988.0,32.0,2224.0,548.0,407.0,522.0
2222.0,24.0,1003.0,-39.0,2160.0,445.0,542.0,484.0
2327.0,44.0,676.0,7.0,2776.0,346.0,693.0,384.0
2080.0,131.0,556.0,74.0,3281.0,376.0,681.0,490.0
994.0,149.0,225.0,105.0,3787.0,278.0,608.0,686.0
505.0,200.0,114.0,129.0,3904.0,82.0,498.0,914.0
-100.0,200.0,-16.0,131.0,3794.0,-94.0,260.0,1207.0
-346.0,162.0,-9.0,185.0,3794.0,-217.0,141.0,1334.0
-632.0,40.0,8.0,182.0,3558.0,-251.0,29.0,1633.0
-836.0,-85.0,-193.0,124.0,3281.0,-297.0,-176.0,1793.0
-534.0,-49.0,-432.0,41.0,2889.0,-333.0,-336.0,1924.0
-710.0,-8.0,-478.0,-22.0,2578.0,-247.0,-436.0,2054.0
-1141.0,111.0,-324.0,-57.0,2356.0,-84.0,-459.0,1960.0
-1351.0,108.0,-415.0,-186.0,1995.0,184.0,-449.0,1792.0
-1430.0,-219.0,-519.0,-308.0,1824.0,532.0,-469.0,1595.0
-1211.0,-347.0,-472.0,-301.0,1800.0,795.0,-511.0,1456.0
-357.0,-176.0,-297.0,-151.0,1920.0,758.0,-565.0,1272.0
318.0,-92.0,-143.0,-53.0,1898.0,506.0,-676.0,1057.0
654.0,-68.0,-47.0,-107.0,1462.0,262.0,-859.0,798.0
269.0,79.0,-16.0,-124.0,1266.0,15.0,-1076.0,564.0
40.0,19.0,-8.0,-133.0,1075.0,-297.0,-1199.0,461.0
-372.0,-196.0,67.0,-65.0,817.0,-474.0,-1243.0,293.0
56.0,-277.0,139.0,-162.0,686.0,-468.0,-1136.0,213.0
1017.0,-220.0,72.0,-426.0,519.0,-385.0,-941.0,282.0
1307.0,-127.0,-86.0,-217.0,666.0,-251.0,-811.0,422.0
1872.0,-39.0,-96.0,16.0,627.0,-216.0,-771.0,425.0
1726.0,66.0,-324.0,9.0,479.0,-521.0,-802.0,210.0
1216.0,101.0,-1229.0,47.0,706.0,-1140.0,-762.0,38.0
281.0,176.0,-1492.0,13.0,1201.0,-1947.0,-711.0,-89.0
-350.0,203.0,83.0,22.0,1853.0,-2815.0,-611.0,54.0
-681.0,233.0,1314.0,41.0,2111.0,-3624.0,-446.0,426.0
-784.0,287.0,1877.0,31.0,1966.0,-3901.0,-273.0,686.0
-645.0,280.0,1939.0,72.0,1580.0,-3685.0,-107.0,853.0
-599.0,290.0,1192.0,22.0,1083.0,-3340.0,-4.0,719.0
-457.0,222.0,840.0,4.0,967.0,-2856.0,15.0,590.0
-448.0,122.0,318.0,3.0,865.0,-2313.0,-59.0,589.0
-323.0,83.0,52.0,-36.0,809.0,-1912.0,-37.0,601.0
-357.0,48.0,-204.0,-34.0,961.0,-1198.0,-42.0,831.0
-376.0,-7.0,-447.0,-12.0,606.0,-13.0,-63.0,1150.0
-407.0,-35.0,-532.0,12.0,151.0,1157.0,-30.0,1346.0
-301.0,-42.0,-1004.0,102.0,-28.0,2254.0,14.0,1585.0
-191.0,-30.0,-1992.0,168.0,-64.0,2877.0,46.0,1515.0
-207.0,-29.0,-2267.0,164.0,139.0,2824.0,12.0,1468.0
-179.0,-8.0,-1666.0,203.0,245.0,2824.0,-16.0,1633.0
-67.0,4.0,-486.0,164.0,654.0,2824.0,-91.0,1660.0
118.0,-16.0,1497.0,88.0,1070.0,2759.0,-125.0,1651.0
202.0,-40.0,2259.0,42.0,1340.0,2580.0,-157.0,1585.0
316.0,-49.0,2276.0,-17.0,1930.0,2363.0,-216.0,1598.0
267.0,-52.0,1597.0,-39.0,2695.0,1991.0,-206.0,1456.0
222.0,-73.0,852.0,-69.0,3410.0,1592.0,-125.0,1221.0
107.0,-86.0,395.0,-49.0,4000.0,1287.0,-5.0,1134.0
-51.0,-113.0,-185.0,-13.0,4000.0,947.0,145.0,1118.0
-138.0,-96.0,-393.0,-22.0,4000.0,947.0,277.0,1091.0
-155.0,-56.0,-477.0,4.0,4000.0,1033.0,300.0,1272.0
-78.0,-38.0,-328.0,65.0,4000.0,749.0,303.0,1247.0
-13.0,28.0,-682.0,34.0,4000.0,651.0,242.0,1156.0
48.0,43.0,-781.0,20.0,4000.0,522.0,197.0,1281.0
88.0,52.0,-817.0,-62.0,4000.0,445.0,179.0,997.0
175.0,71.0,-1678.0,-239.0,4000.0,327.0,166.0,686.0
163.0,47.0,-2134.0,-218.0,4000.0,-123.0,168.0,490.0
127.0,41.0,-1294.0,-123.0,2383.0,-533.0,53.0,276.0
100.0,79.0,-511.0,-94.0,-818.0,-875.0,-66.0,-23.0
72.0,-72.0,-768.0,-87.0,-3917.0,-988.0,-91.0,-320.0
-98.0,-300.0,284.0,-81.0,-4000.0,-1232.0,-91.0,-620.0
-443.0,-328.0,1625.0,-63.0,-4000.0,-1636.0,-42.0,-1005.0
-895.0,-231.0,1674.0,-87.0,-4000.0,-1977.0,203.0,-1330.0
-1292.0,-147.0,1322.0,-129.0,-4000.0,-2185.0,426.0,-1671.0
-1149.0,-107.0,443.0,-137.0,-4000.0,-2338.0,391.0,-2004.0
-645.0,-91.0,493.0,-99.0,-4000.0,-2286.0,149.0,-2319.0
-380.0,-86.0,533.0,-59.0,-4000.0,-1943.0,-124.0,-2412.0
188.0,-67.0,654.0,-40.0,-4000.0,-1499.0,-262.0,-2293.0
1311.0,-36.0,1023.0,10.0,-4000.0,-1265.0,-200.0,-1957.0
1766.0,12.0,792.0,2.0,-4000.0,-1242.0,-69.0,-1829.0
1428.0,1.0,492.0,-48.0,-4000.0,-1103.0,217.0,-2088.0
710.0,-15.0,-9.0,-130.0,-4000.0,-1031.0,403.0,-2393.0
330.0,21.0,-283.0,-243.0,-4000.0,-859.0,297.0,-2723.0
216.0,40.0,-495.0,-182.0,-4000.0,-838.0,321.0,-3024.0
214.0,15.0,-335.0,-48.0,-4000.0,-849.0,439.0,-3345.0
446.0,-48.0,-292.0,-4.0,-4000.0,-733.0,498.0,-3397.0
517.0,-5.0,-385.0,49.0,-4000.0,-676.0,548.0,-3203.0
530.0,91.0,-454.0,73.0,-3391.0,-240.0,498.0,-3126.0
137.0,83.0,-442.0,61.0,-2611.0,339.0,268.0,-3057.0
-189.0,86.0,-291.0,50.0,-1507.0,1026.0,48.0,-3007.0
-381.0,106.0,-336.0,60.0,93.0,2189.0,-35.0,-3073.0
-533.0,124.0,-200.0,48.0,1201.0,3214.0,-16.0,-3253.0
-502.0,124.0,-216.0,73.0,2320.0,3528.0,73.0,-3333.0
-493.0,117.0,-177.0,84.0,3140.0,2744.0,120.0,-3321.0
-386.0,108.0,-126.0,33.0,3363.0,983.0,262.0,-3203.0
-354.0,17.0,-107.0,-22.0,2695.0,-46.0,376.0,-2872.0
-296.0,-7.0,-247.0,-10.0,2683.0,-647.0,524.0,-2543.0
-354.0,57.0,-450.0,35.0,3916.0,-1532.0,795.0,-2350.0
-274.0,93.0,-163.0,-11.0,4000.0,-1975.0,726.0,-2163.0
-135.0,121.0,225.0,40.0,4000.0,-1183.0,-326.0,-1906.0
-60.0,140.0,398.0,40.0,4000.0,259.0,-1767.0,-1632.0
29.0,136.0,303.0,30.0,4000.0,1075.0,-2675.0,-1213.0
31.0,95.0,-85.0,65.0,4000.0,1710.0,-2273.0,-711.0
-1.0,28.0,-376.0,29.0,4000.0,1898.0,-507.0,-47.0
-201.0,-31.0,-450.0,42.0,4000.0,1601.0,759.0,686.0
-388.0,-20.0,-340.0,-2.0,4000.0,1657.0,881.0,1252.0
-784.0,-34.0,-3.0,-71.0,4000.0,1994.0,30.0,1586.0
-1414.0,-134.0,-299.0,-97.0,4000.0,2971.0,-849.0,1763.0
-1479.0,-117.0,-1599.0,-75.0,4000.0,4000.0,-784.0,1793.0
-886.0,-122.0,-1982.0,-28.0,4000.0,4000.0,139.0,1781.0
30.0,-141.0,-971.0,26.0,4000.0,3677.0,934.0,1663.0
1150.0,-56.0,133.0,13.0,4000.0,3148.0,749.0,1633.0
1938.0,31.0,1501.0,-44.0,4000.0,3141.0,555.0,1688.0
2264.0,30.0,2520.0,-25.0,4000.0,3267.0,702.0,1638.0
1897.0,-63.0,2665.0,81.0,4000.0,3083.0,823.0,1476.0
1222.0,-84.0,857.0,113.0,4000.0,2747.0,673.0,1399.0
733.0,22.0,-2189.0,88.0,4000.0,2568.0,571.0,1395.0
294.0,136.0,-3136.0,68.0,2825.0,2438.0,533.0,1525.0
-66.0,120.0,-2536.0,-64.0,1992.0,2124.0,294.0,1792.0
-228.0,160.0,-1655.0,-111.0,1474.0,1704.0,17.0,2029.0
-300.0,200.0,-109.0,-145.0,748.0,1482.0,-216.0,2183.0
-555.0,103.0,1674.0,-75.0,178.0,1352.0,-163.0,2302.0
-719.0,20.0,3238.0,40.0,212.0,624.0,-158.0,2445.0
-654.0,20.0,3593.0,1.0,1222.0,-19.0,-267.0,2544.0
-504.0,55.0,3652.0,19.0,3167.0,-339.0,-522.0,2510.0
-453.0,-4.0,3332.0,-16.0,4000.0,-433.0,-185.0,2575.0
-368.0,20.0,2201.0,-124.0,4000.0,-881.0,249.0,2689.0
-161.0,150.0,349.0,-136.0,4000.0,-1302.0,-25.0,2807.0
-27.0,148.0,-1779.0,-147.0,4000.0,-1054.0,-217.0,2901.0
23.0,43.0,-2633.0,-106.0,4000.0,-1248.0,-294.0,2966.0
-67.0,-47.0,-2627.0,-23.0,4000.0,-1669.0,6.0,2872.0
25.0,22.0,-1682.0,-9.0,4000.0,-1729.0,152.0,2640.0
111.0,37.0,-129.0,-22.0,4000.0,-1607.0,234.0,2380.0
-78.0,-19.0,1153.0,-16.0,4000.0,-1452.0,414.0,2030.0
-280.0,-73.0,1888.0,12.0,4000.0,-1509.0,368.0,1660.0
-476.0,-159.0,2160.0,4.0,4000.0,-1669.0,336.0,1286.0
-610.0,-231.0,1769.0,-114.0,4000.0,-1526.0,154.0,874.0
-371.0,-179.0,1112.0,-145.0,4000.0,-1792.0,189.0,406.0
-168.0,-52.0,597.0,-63.0,4000.0,-2118.0,185.0,2.0
-164.0,-107.0,533.0,-2.0,4000.0,-2439.0,3.0,-382.0
-564.0,-88.0,188.0,85.0,4000.0,-2493.0,-139.0,-875.0
-1670.0,-172.0,-596.0,126.0,1189.0,-2338.0,-45.0,-1392.0
-1658.0,-241.0,-1199.0,150.0,-2753.0,-2368.0,131.0,-1921.0
-909.0,-128.0,-1278.0,207.0,-4000.0,-2310.0,398.0,-2346.0
212.0,-55.0,-841.0,199.0,-4000.0,-2431.0,504.0,-2556.0
1690.0,33.0,-1134.0,51.0,-4000.0,-2313.0,166.0,-2682.0
1937.0,29.0,-1537.0,-103.0,-4000.0,-2469.0,-68.0,-2735.0
2350.0,54.0,-2805.0,-137.0,-4000.0,-2558.0,-258.0,-2747.0
2415.0,91.0,-3615.0,-110.0,-4000.0,-2386.0,43.0,-2735.0
1611.0,92.0,-2450.0,-35.0,-4000.0,-2527.0,486.0,-2722.0
790.0,4.0,-1237.0,15.0,-4000.0,-2315.0,294.0,-2800.0
-1.0,-104.0,207.0,55.0,-4000.0,-2272.0,153.0,-2893.0
-357.0,-39.0,1422.0,3.0,-4000.0,-2185.0,129.0,-2876.0
-590.0,-18.0,2030.0,-195.0,-4000.0,-1850.0,-52.0,-2722.0
-756.0,-60.0,2148.0,-213.0,-4000.0,-1715.0,2.0,-2409.0
-750.0,-101.0,1794.0,-144.0,-4000.0,-1461.0,109.0,-1723.0
-945.0,-86.0,1375.0,-233.0,-4000.0,-1270.0,-78.0,-753.0
-1088.0,-52.0,498.0,-220.0,-4000.0,-1054.0,-105.0,367.0
-1300.0,31.0,-538.0,-141.0,-4000.0,-810.0,155.0,1632.0
-1866.0,117.0,-1881.0,-104.0,-4000.0,-743.0,177.0,2819.0
-1300.0,105.0,-2463.0,-28.0,-4000.0,-680.0,41.0,3849.0
-32.0,28.0,-1982.0,69.0,-4000.0,-530.0,52.0,4000.0
705.0,-49.0,-1088.0,77.0,-4000.0,-175.0,-97.0,4000.0
1181.0,-45.0,187.0,60.0,-4000.0,70.0,-87.0,4000.0
1095.0,-64.0,1296.0,80.0,-4000.0,220.0,22.0,4000.0
1375.0,-77.0,1908.0,22.0,-4000.0,297.0,23.0,4000.0
1594.0,26.0,1639.0,-39.0,-4000.0,376.0,53.0,4000.0
447.0,64.0,1047.0,-77.0,-4000.0,471.0,-40.0,4000.0
-1501.0,-69.0,606.0,22.0,-4000.0,485.0,-37.0,4000.0
-3424.0,-103.0,328.0,104.0,-4000.0,563.0,-81.0,4000.0
-4000.0,-30.0,325.0,51.0,-4000.0,571.0,-124.0,4000.0
-3554.0,19.0,-441.0,-120.0,-4000.0,663.0,-68.0,4000.0
660.0,56.0,-1732.0,-226.0,-3898.0,802.0,38.0,2154.0
3805.0,80.0,-2782.0,-88.0,-2181.0,811.0,86.0,-133.0
4000.0,209.0,-3601.0,-188.0,-392.0,857.0,98.0,-2322.0
4000.0,353.0,-3946.0,-243.0,1800.0,811.0,144.0,-4000.0
4000.0,406.0,-4000.0,-38.0,4000.0,788.0,87.0,-4000.0
2793.0,282.0,-4000.0,84.0,4000.0,947.0,129.0,-4000.0
304.0,49.0,-4000.0,144.0,4000.0,1148.0,77.0,-4000.0
-1540.0,-3.0,852.0,85.0,4000.0,1340.0,-119.0,-4000.0
-2773.0,1.0,4000.0,26.0,4000.0,1340.0,-175.0,-4000.0
-2826.0,95.0,4000.0,-130.0,4000.0,1279.0,-284.0,-3007.0
-2486.0,152.0,4000.0,-103.0,4000.0,1214.0,-475.0,-2100.0
-1950.0,102.0,4000.0,78.0,4000.0,1222.0,-637.0,-1526.0
-1365.0,206.0,4000.0,74.0,4000.0,1069.0,-839.0,-1534.0
-844.0,282.0,4000.0,39.0,4000.0,602.0,-817.0,-1891.0
-480.0,306.0,702.0,174.0,4000.0,497.0,-424.0,-2230.0
-763.0,222.0,-1297.0,356.0,4000.0,636.0,-200.0,-2722.0
-1829.0,64.0,-1947.0,430.0,4000.0,510.0,109.0,-3462.0
-2350.0,9.0,-2448.0,423.0,4000.0,115.0,529.0,-4000.0
-1621.0,-196.0,-2847.0,356.0,4000.0,-375.0,290.0,-4000.0
-1560.0,-469.0,-3471.0,430.0,4000.0,-796.0,76.0,-4000.0
-2499.0,-601.0,-3160.0,430.0,4000.0,-845.0,44.0,-4000.0
-4000.0,-539.0,-2782.0,303.0,4000.0,-832.0,-49.0,-4000.0
-4000.0,-411.0,-2462.0,169.0,4000.0,-1317.0,-9.0,-4000.0
-4000.0,-273.0,-2216.0,22.0,4000.0,-1526.0,-185.0,-4000.0
-2452.0,-171.0,-1826.0,-98.0,4000.0,-1167.0,-345.0,-4000.0
4000.0,-118.0,-1302.0,-198.0,4000.0,-988.0,-109.0,-4000.0
4000.0,-94.0,-1215.0,-191.0,4000.0,-519.0,175.0,-4000.0
4000.0,-88.0,-1288.0,-181.0,4000.0,373.0,67.0,-4000.0
4000.0,2.0,-1410.0,-172.0,4000.0,997.0,-86.0,-4000.0
4000.0,27.0,-1388.0,-149.0,4000.0,1222.0,-122.0,-4000.0
1688.0,52.0,-1398.0,-86.0,4000.0,882.0,-138.0,-3516.0
-4000.0,-20.0,-1199.0,-154.0,4000.0,628.0,-125.0,-2812.0
-4000.0,-66.0,-1106.0,-258.0,2569.0,486.0,-127.0,-2187.0
-4000.0,31.0,-1073.0,-346.0,1279.0,-159.0,-82.0,-1521.0
-4000.0,93.0,-1262.0,-391.0,468.0,-382.0,-101.0,-947.0
-2839.0,143.0,-3683.0,-332.0,553.0,-155.0,-90.0,-476.0
4000.0,200.0,-4000.0,-371.0,1938.0,124.0,-123.0,-30.0
4000.0,264.0,-4000.0,-357.0,3215.0,667.0,-102.0,361.0
4000.0,217.0,-4000.0,-290.0,3982.0,947.0,-64.0,692.0
4000.0,170.0,-512.0,-230.0,4000.0,985.0,-52.0,981.0
4000.0,134.0,4000.0,-173.0,4000.0,815.0,-29.0,1286.0
4000.0,65.0,4000.0,-74.0,4000.0,576.0,-17.0,1568.0
-1616.0,25.0,4000.0,-54.0,4000.0,429.0,5.0,1792.0
-4000.0,122.0,4000.0,-28.0,4000.0,176.0,18.0,1989.0
-4000.0,323.0,4000.0,11.0,4000.0,439.0,73.0,2119.0
-4000.0,446.0,-865.0,51.0,4000.0,683.0,79.0,2159.0
-4000.0,502.0,-4000.0,191.0,4000.0,719.0,90.0,1859.0
-4000.0,489.0,-4000.0,386.0,4000.0,496.0,59.0,1395.0
-4000.0,542.0,-2981.0,561.0,4000.0,254.0,106.0,853.0
-4000.0,693.0,280.0,538.0,4000.0,510.0,138.0,315.0
-4000.0,537.0,3007.0,377.0,4000.0,391.0,101.0,-79.0
-4000.0,99.0,4000.0,272.0,4000.0,272.0,137.0,-431.0
-3344.0,-127.0,4000.0,183.0,4000.0,261.0,129.0,-644.0
-2761.0,-258.0,2848.0,77.0,4000.0,206.0,123.0,-650.0
-2173.0,-336.0,-1297.0,45.0,4000.0,284.0,90.0,-618.0
-1817.0,-330.0,-2513.0,2.0,4000.0,185.0,66.0,-484.0
-1495.0,-314.0,-1282.0,-72.0,4000.0,199.0,74.0,-291.0
-901.0,-264.0,-133.0,-127.0,4000.0,348.0,76.0,-30.0
-140.0,-232.0,1953.0,-149.0,4000.0,376.0,74.0,357.0
1026.0,-275.0,2094.0,-206.0,4000.0,315.0,27.0,719.0
1311.0,-300.0,-976.0,-271.0,4000.0,315.0,-14.0,1077.0
994.0,-310.0,-4000.0,-243.0,4000.0,210.0,41.0,1338.0
521.0,-398.0,-4000.0,-147.0,4000.0,57.0,70.0,1598.0
-886.0,-364.0,-1557.0,-105.0,4000.0,93.0,48.0,1963.0
-1585.0,-288.0,2730.0,-143.0,4000.0,-42.0,93.0,2184.0
-1365.0,-260.0,4000.0,-54.0,4000.0,-224.0,116.0,2377.0
-690.0,-201.0,4000.0,60.0,4000.0,-284.0,111.0,2498.0
716.0,-210.0,4000.0,164.0,3744.0,-297.0,138.0,2677.0
2679.0,-196.0,3885.0,282.0,2955.0,-212.0,160.0,2941.0
3770.0,-177.0,263.0,251.0,2321.0,-74.0,166.0,3161.0
3432.0,-138.0,-4000.0,142.0,2046.0,105.0,172.0,3263.0
1962.0,-85.0,-4000.0,103.0,1604.0,-1.0,155.0,3209.0
-567.0,-108.0,-4000.0,81.0,569.0,-179.0,181.0,3079.0
-4000.0,-157.0,-4000.0,41.0,-1072.0,-74.0,207.0,2872.0
-4000.0,-156.0,-3866.0,77.0,-2552.0,-48.0,109.0,2689.0
-4000.0,-146.0,2160.0,12.0,-3474.0,-116.0,29.0,2479.0
-844.0,-150.0,4000.0,-62.0,-4000.0,-198.0,37.0,2249.0
4000.0,-77.0,4000.0,-1.0,-4000.0,-192.0,31.0,2154.0
4000.0,-52.0,4000.0,85.0,-4000.0,-47.0,54.0,2219.0
4000.0,-21.0,4000.0,84.0,-4000.0,-25.0,87.0,2348.0
4000.0,69.0,4000.0,-46.0,-3908.0,126.0,61.0,2435.0
4000.0,44.0,1962.0,-59.0,-3663.0,348.0,95.0,2507.0
3330.0,-9.0,34.0,-21.0,-4000.0,441.0,78.0,2357.0
428.0,-30.0,-2704.0,26.0,-4000.0,563.0,53.0,2051.0
-2899.0,12.0,-3884.0,30.0,-3539.0,576.0,78.0,1595.0
-4000.0,217.0,-3946.0,-35.0,-3041.0,525.0,83.0,1121.0
-4000.0,378.0,-2999.0,-63.0,-3604.0,290.0,62.0,597.0
-4000.0,288.0,-1667.0,-118.0,-4000.0,243.0,1.0,-128.0
-4000.0,208.0,-1655.0,-195.0,-4000.0,210.0,-6.0,-936.0
-2336.0,298.0,-3783.0,-383.0,-4000.0,85.0,2.0,-1743.0
-2220.0,587.0,-4000.0,-571.0,-4000.0,172.0,-2.0,-2584.0
-2582.0,652.0,-4000.0,-586.0,-4000.0,64.0,0.0,-3284.0
-4000.0,321.0,-4000.0,-576.0,-4000.0,94.0,41.0,-3844.0
-4000.0,-10.0,-4000.0,-559.0,-4000.0,237.0,89.0,-4000.0
-590.0,-137.0,-4000.0,-495.0,-4000.0,426.0,74.0,-4000.0
4000.0,-207.0,-4000.0,-397.0,-4000.0,616.0,27.0,-3929.0
4000.0,-271.0,231.0,-345.0,-4000.0,667.0,-7.0,-3373.0
4000.0,-287.0,4000.0,-325.0,-4000.0,641.0,-46.0,-2491.0
4000.0,-275.0,4000.0,-253.0,-3213.0,368.0,-58.0,-1514.0
733.0,-148.0,4000.0,-133.0,-2741.0,303.0,-131.0,-454.0
-3867.0,149.0,4000.0,-15.0,-3754.0,669.0,-149.0,634.0
-3543.0,380.0,3564.0,74.0,-4000.0,687.0,-26.0,1476.0
-431.0,371.0,3500.0,150.0,-4000.0,468.0,-2.0,1977.0
-966.0,276.0,4000.0,255.0,-4000.0,415.0,20.0,2183.0
-2114.0,264.0,4000.0,362.0,-4000.0,400.0,62.0,2245.0
-2452.0,371.0,4000.0,506.0,-4000.0,506.0,98.0,2183.0
-1682.0,353.0,4000.0,684.0,-2726.0,445.0,100.0,2118.0
563.0,235.0,4000.0,720.0,348.0,433.0,64.0,2118.0
1897.0,162.0,1794.0,590.0,1669.0,216.0,50.0,1989.0
2874.0,-24.0,-1746.0,394.0,887.0,-8.0,107.0,1846.0
2793.0,-70.0,-4000.0,204.0,-162.0,-26.0,119.0,1598.0
228.0,-130.0,-4000.0,94.0,-364.0,-110.0,37.0,1502.0
-3786.0,-201.0,-4000.0,66.0,-616.0,161.0,-113.0,1468.0
-4000.0,-224.0,-4000.0,4.0,-1313.0,126.0,-155.0,1346.0
-4000.0,-269.0,-4000.0,55.0,-1823.0,0.0,-178.0,1183.0
-3693.0,-167.0,-4000.0,31.0,-2009.0,47.0,-341.0,1004.0
1634.0,-199.0,-4000.0,-93.0,-1638.0,2.0,-393.0,947.0
3443.0,-176.0,-4000.0,-133.0,-718.0,-128.0,-258.0,988.0
4000.0,-102.0,2391.0,-198.0,-724.0,-334.0,-95.0,1065.0
986.0,-94.0,4000.0,-232.0,-1508.0,-423.0,-54.0,1012.0
-1885.0,-91.0,4000.0,-213.0,-2537.0,-657.0,-15.0,890.0
-3673.0,-156.0,4000.0,-103.0,-3391.0,-706.0,-4.0,760.0
-3506.0,-204.0,4000.0,-63.0,-2776.0,-407.0,47.0,615.0
-850.0,-310.0,4000.0,-145.0,-803.0,155.0,144.0,392.0
2024.0,-326.0,4000.0,-128.0,1527.0,455.0,197.0,160.0
4000.0,-219.0,4000.0,3.0,2581.0,-21.0,172.0,-64.0
4000.0,-29.0,4000.0,150.0,2357.0,-382.0,106.0,-401.0
-2214.0,83.0,1700.0,100.0,1930.0,-480.0,181.0,-778.0
-4000.0,-49.0,-3420.0,-24.0,701.0,-676.0,207.0,-1126.0
-4000.0,-35.0,-4000.0,56.0,-269.0,-651.0,141.0,-1590.0
-4000.0,-95.0,-4000.0,102.0,-912.0,-645.0,120.0,-2069.0
3495.0,-305.0,-4000.0,50.0,-421.0,-686.0,232.0,-2472.0
4000.0,-269.0,-4000.0,-8.0,635.0,-685.0,26.0,-2865.0
4000.0,-193.0,-4000.0,-130.0,-278.0,-703.0,-355.0,-3333.0
2211.0,-196.0,-2306.0,-190.0,-640.0,-639.0,-379.0,-3842.0
-4000.0,-368.0,-3756.0,-214.0,-941.0,-645.0,-418.0,-4000.0
-4000.0,-423.0,-4000.0,-233.0,-1963.0,-596.0,-100.0,-4000.0
4000.0,-231.0,-2679.0,-297.0,-2729.0,-485.0,200.0,-4000.0
4000.0,34.0,1639.0,-336.0,-1638.0,-354.0,100.0,-3669.0
4000.0,335.0,4000.0,-297.0,2254.0,-184.0,593.0,-3178.0
4000.0,418.0,4000.0,-239.0,4000.0,-48.0,734.0,-2735.0
4000.0,399.0,4000.0,-91.0,2760.0,-167.0,-16.0,-2050.0
-2790.0,489.0,4000.0,144.0,1848.0,-287.0,-129.0,-1078.0
-4000.0,570.0,4000.0,290.0,2425.0,-146.0,189.0,-96.0
-4000.0,406.0,4000.0,170.0,3133.0,-42.0,490.0,811.0
-4000.0,290.0,2410.0,317.0,994.0,-38.0,746.0,1482.0
-4000.0,587.0,492.0,548.0,-1652.0,-81.0,726.0,1833.0
-4000.0,1006.0,-1992.0,452.0,-2231.0,-214.0,1149.0,2029.0
-4000.0,1096.0,-4000.0,394.0,-1853.0,-267.0,1164.0,2159.0
-4000.0,725.0,-4000.0,305.0,-1638.0,-187.0,498.0,2313.0
-4000.0,441.0,-4000.0,268.0,-1423.0,-124.0,-44.0,2445.0
758.0,442.0,-4000.0,209.0,1417.0,-7.0,-510.0,2310.0
4000.0,273.0,-4000.0,-26.0,3150.0,-48.0,-565.0,1977.0
4000.0,-135.0,-2186.0,-188.0,1091.0,-77.0,-811.0,1793.0
4000.0,-429.0,-2639.0,-288.0,-1361.0,49.0,-1116.0,1753.0
2353.0,-604.0,-2399.0,-306.0,-853.0,26.0,-920.0,1818.0
-4000.0,-592.0,-4000.0,-359.0,1417.0,54.0,-599.0,2118.0
-4000.0,-596.0,-4000.0,-397.0,-49.0,106.0,-791.0,2183.0
-4000.0,-718.0,-1462.0,-290.0,-3575.0,-18.0,-1021.0,1728.0
3694.0,-537.0,4000.0,-214.0,-2395.0,-72.0,-507.0,1329.0
4000.0,-196.0,4000.0,-263.0,-133.0,152.0,-23.0,851.0
4000.0,66.0,4000.0,-312.0,-869.0,394.0,254.0,241.0
4000.0,143.0,4000.0,-385.0,-2676.0,361.0,772.0,-105.0
905.0,63.0,-4000.0,-497.0,-4000.0,17.0,1098.0,-305.0
-4000.0,-10.0,-4000.0,-372.0,-3661.0,-172.0,934.0,-199.0
-4000.0,-179.0,-4000.0,-258.0,-2369.0,-133.0,1267.0,-202.0
-4000.0,-505.0,-4000.0,-106.0,-1398.0,-232.0,1467.0,-35.0
2276.0,-722.0,4000.0,145.0,985.0,-189.0,962.0,276.0
4000.0,-478.0,4000.0,229.0,2630.0,-182.0,164.0,340.0
4000.0,56.0,4000.0,364.0,1417.0,-137.0,-449.0,658.0
4000.0,449.0,4000.0,276.0,-566.0,-136.0,-811.0,1012.0
4000.0,574.0,4000.0,138.0,-341.0,-52.0,-2251.0,1532.0
4000.0,485.0,4000.0,50.0,-1601.0,144.0,-2869.0,1960.0
-99.0,327.0,4000.0,-59.0,-3982.0,-29.0,-1884.0,2029.0
-2545.0,359.0,4000.0,40.0,-4000.0,-54.0,-517.0,1859.0
-4000.0,418.0,4000.0,139.0,-2887.0,-156.0,-50.0,1698.0
-4000.0,305.0,2730.0,326.0,-773.0,-201.0,113.0,1411.0
-4000.0,408.0,-513.0,518.0,383.0,-174.0,759.0,1108.0
-4000.0,477.0,-4000.0,720.0,1148.0,-261.0,365.0,947.0
-4000.0,328.0,-4000.0,838.0,1213.0,-54.0,164.0,881.0
-4000.0,-4.0,-4000.0,687.0,719.0,54.0,415.0,831.0
-4000.0,-440.0,-4000.0,447.0,1966.0,259.0,603.0,803.0
-4000.0,-665.0,-4000.0,264.0,1604.0,412.0,246.0,890.0
-4000.0,-686.0,-4000.0,261.0,-299.0,191.0,-204.0,978.0
4000.0,-726.0,-3420.0,77.0,-262.0,10.0,-83.0,1091.0
4000.0,-688.0,-694.0,-161.0,-460.0,-64.0,-314.0,1247.0
4000.0,-575.0,-450.0,-300.0,-234.0,-144.0,-1116.0,1338.0
4000.0,-444.0,-3998.0,-377.0,528.0,-146.0,-1441.0,1257.0
4000.0,-432.0,-4000.0,-429.0,-291.0,-72.0,-465.0,914.0
716.0,-600.0,-4000.0,-436.0,-1398.0,-67.0,660.0,384.0
-4000.0,-505.0,-4000.0,-442.0,-421.0,-82.0,1223.0,-572.0
-4000.0,-171.0,-4000.0,-480.0,1734.0,-64.0,1054.0,-1390.0
-4000.0,273.0,507.0,-445.0,2425.0,70.0,823.0,-1998.0
-4000.0,686.0,4000.0,-378.0,1855.0,264.0,795.0,-2472.0
-4000.0,784.0,194.0,-290.0,3085.0,329.0,628.0,-2584.0
-4000.0,640.0,-2951.0,-256.0,4000.0,376.0,416.0,-2682.0
-4000.0,581.0,976.0,-230.0,4000.0,596.0,-49.0,-2670.0
-4000.0,418.0,4000.0,-293.0,1983.0,681.0,-505.0,-2584.0
-4000.0,91.0,4000.0,-343.0,-547.0,687.0,-477.0,-2440.0
-3400.0,-105.0,-2717.0,-301.0,-1795.0,857.0,-113.0,-2401.0
2976.0,-237.0,-4000.0,-214.0,-2108.0,795.0,282.0,-2502.0
4000.0,-244.0,-4000.0,-158.0,-1488.0,589.0,661.0,-2512.0
4000.0,-113.0,-4000.0,-198.0,692.0,480.0,490.0,-2605.0
538.0,-43.0,4000.0,-227.0,4000.0,311.0,167.0,-2682.0
-4000.0,-228.0,4000.0,-239.0,4000.0,237.0,-363.0,-2682.0
-4000.0,-478.0,4000.0,-120.0,3794.0,283.0,-941.0,-2812.0
4000.0,-491.0,4000.0,37.0,3541.0,211.0,-630.0,-3113.0
4000.0,-352.0,4000.0,105.0,2842.0,110.0,164.0,-3284.0
4000.0,29.0,4000.0,96.0,1840.0,89.0,1313.0,-3089.0
4000.0,440.0,4000.0,149.0,808.0,38.0,1149.0,-2412.0
4000.0,542.0,4000.0,254.0,320.0,18.0,346.0,-1717.0
1594.0,449.0,1609.0,402.0,-25.0,112.0,714.0,-1170.0
-2968.0,176.0,-4000.0,603.0,-473.0,126.0,881.0,-781.0
-4000.0,-29.0,-4000.0,634.0,-113.0,246.0,811.0,-120.0
-4000.0,120.0,-4000.0,634.0,627.0,468.0,472.0,1071.0
-4000.0,68.0,-4000.0,538.0,2048.0,602.0,-86.0,2357.0
-4000.0,-190.0,41.0,390.0,2320.0,683.0,-1332.0,3871.0
-4000.0,-253.0,2811.0,303.0,1865.0,571.0,-2251.0,4000.0
3365.0,-193.0,4000.0,211.0,1824.0,415.0,-611.0,4000.0
4000.0,-158.0,4000.0,80.0,2321.0,327.0,1164.0,4000.0
4000.0,-247.0,4000.0,-94.0,2748.0,237.0,1223.0,4000.0
4000.0,-244.0,1175.0,-116.0,2363.0,38.0,889.0,4000.0
4000.0,-120.0,-151.0,-162.0,2048.0,-224.0,622.0,3910.0
3845.0,-29.0,-3107.0,-173.0,1213.0,-415.0,172.0,3588.0
-4000.0,147.0,-4000.0,36.0,393.0,-471.0,166.0,3521.0
-4000.0,347.0,-4000.0,286.0,-1587.0,-526.0,220.0,3469.0
-4000.0,529.0,-4000.0,264.0,-2389.0,-611.0,278.0,2819.0
-2773.0,657.0,-4000.0,42.0,-1638.0,-472.0,441.0,1663.0
-1882.0,672.0,-4000.0,-108.0,-4000.0,-485.0,420.0,735.0
-4000.0,635.0,1965.0,-293.0,-4000.0,-881.0,254.0,-166.0
-4000.0,338.0,4000.0,-423.0,-4000.0,-1444.0,66.0,-1240.0
-4000.0,87.0,4000.0,-414.0,-3391.0,-1886.0,62.0,-2050.0
2328.0,-16.0,4000.0,-431.0,-3728.0,-1975.0,-150.0,-2280.0
4000.0,-135.0,3871.0,-454.0,-2611.0,-2091.0,-371.0,-2493.0
4000.0,-174.0,1509.0,-383.0,-1098.0,-2079.0,-780.0,-2735.0
4000.0,-64.0,57.0,-239.0,-1768.0,-1995.0,-990.0,-2491.0
452.0,-117.0,-421.0,-107.0,-2122.0,-2041.0,-550.0,-2187.0
-1537.0,-347.0,-2633.0,23.0,-2094.0,-1943.0,-449.0,-1823.0
-2515.0,-314.0,-4000.0,69.0,-2735.0,-1617.0,-723.0,-1461.0
-2137.0,-157.0,-4000.0,-18.0,-3315.0,-977.0,-769.0,-1432.0
-3850.0,58.0,-4000.0,-70.0,-3018.0,-327.0,-601.0,-1018.0
-4000.0,272.0,142.0,-226.0,-1198.0,348.0,-550.0,-353.0
-4000.0,341.0,-4000.0,-366.0,-644.0,766.0,-630.0,-149.0
-2439.0,345.0,-4000.0,-377.0,-840.0,766.0,-527.0,-175.0
-1039.0,241.0,-4000.0,-323.0,-1072.0,1012.0,-121.0,-102.0
-980.0,-67.0,415.0,-189.0,-1142.0,1183.0,376.0,122.0
-4000.0,-398.0,4000.0,-174.0,-437.0,1315.0,656.0,104.0
-4000.0,-621.0,4000.0,-125.0,164.0,1378.0,445.0,-245.0
-4000.0,-635.0,4000.0,-106.0,1069.0,1325.0,176.0,-427.0
4000.0,-568.0,4000.0,-40.0,2502.0,1538.0,232.0,-228.0
4000.0,-585.0,4000.0,223.0,3201.0,1580.0,749.0,151.0
4000.0,-541.0,-1158.0,301.0,1527.0,1710.0,1141.0,201.0
495.0,-379.0,-4000.0,276.0,34.0,1799.0,934.0,23.0
2345.0,-212.0,-2899.0,359.0,273.0,2060.0,707.0,25.0
3761.0,-104.0,-1062.0,559.0,2124.0,2645.0,271.0,-101.0
-886.0,41.0,-2607.0,539.0,2513.0,2568.0,-305.0,-341.0
-4000.0,80.0,-3030.0,410.0,1657.0,2289.0,-1043.0,-490.0
-3799.0,98.0,-4000.0,430.0,1136.0,2124.0,-1664.0,-557.0
285.0,241.0,-4000.0,451.0,9.0,1901.0,-1097.0,-242.0
-4000.0,341.0,-4000.0,377.0,-3.0,1759.0,166.0,261.0
-4000.0,550.0,-3475.0,139.0,-364.0,1547.0,1013.0,334.0
-3883.0,648.0,-862.0,-5.0,-770.0,1279.0,1011.0,438.0
4000.0,500.0,-1636.0,-57.0,-1077.0,1098.0,189.0,739.0
4000.0,305.0,-2110.0,-136.0,-1498.0,1003.0,-548.0,751.0
4000.0,121.0,-1388.0,-262.0,-1267.0,811.0,-501.0,961.0
3367.0,19.0,-1128.0,-291.0,-1200.0,613.0,90.0,1150.0
-203.0,-35.0,-550.0,-319.0,-990.0,479.0,551.0,1085.0
16.0,7.0,-310.0,-393.0,-746.0,368.0,268.0,615.0
-641.0,60.0,-164.0,-328.0,-718.0,191.0,374.0,255.0
1634.0,82.0,19.0,-226.0,-869.0,124.0,403.0,239.0
1222.0,-17.0,82.0,-88.0,-200.0,45.0,-107.0,369.0
2545.0,-69.0,577.0,48.0,438.0,-175.0,-204.0,860.0
-960.0,-15.0,976.0,99.0,615.0,-293.0,-16.0,751.0
-4000.0,-24.0,964.0,-24.0,1462.0,-393.0,288.0,503.0
-4000.0,-44.0,1639.0,-101.0,2308.0,-474.0,529.0,54.0
-4000.0,-167.0,1544.0,-147.0,2516.0,-611.0,445.0,-711.0
-4000.0,-222.0,1153.0,-179.0,2683.0,-810.0,309.0,-1534.0
-4000.0,-236.0,1310.0,-193.0,3085.0,-875.0,154.0,-1856.0
-2258.0,-182.0,1888.0,-260.0,3167.0,-982.0,-214.0,-1859.0
-1633.0,144.0,1432.0,-238.0,3020.0,-1115.0,-355.0,-2193.0
-824.0,483.0,1375.0,-206.0,2955.0,-1205.0,-298.0,-2425.0
1820.0,328.0,2483.0,-225.0,3493.0,-1186.0,-197.0,-2682.0
3757.0,68.0,1098.0,-237.0,4000.0,-1042.0,-48.0,-2457.0
4000.0,147.0,-66.0,-217.0,4000.0,-1062.0,-74.0,-2296.0
4000.0,-113.0,-1468.0,-107.0,4000.0,-1050.0,-98.0,-2322.0
4000.0,-314.0,-2215.0,-1.0,4000.0,-1038.0,-224.0,-2440.0
1885.0,-375.0,-1302.0,-53.0,4000.0,-1030.0,-548.0,-2633.0
-1300.0,-470.0,624.0,-115.0,4000.0,-1005.0,-794.0,-2812.0
-4000.0,-232.0,45.0,-75.0,3682.0,-1070.0,-973.0,-3073.0
-4000.0,-63.0,-2782.0,18.0,3668.0,-976.0,-900.0,-2441.0
-4000.0,65.0,-2189.0,29.0,3837.0,-810.0,-522.0,-1558.0
-4000.0,65.0,-2385.0,-75.0,4000.0,-640.0,-46.0,-875.0
-3615.0,2.0,-1779.0,-51.0,3877.0,-722.0,268.0,-390.0
-1131.0,58.0,-1980.0,103.0,3215.0,-862.0,457.0,142.0
-327.0,195.0,-1231.0,194.0,2567.0,-737.0,702.0,811.0
530.0,391.0,321.0,142.0,1918.0,-771.0,571.0,1183.0
603.0,460.0,520.0,88.0,1639.0,-686.0,767.0,1391.0
595.0,399.0,179.0,264.0,1417.0,-572.0,875.0,1727.0
976.0,263.0,-2254.0,467.0,1272.0,-529.0,464.0,2357.0
760.0,200.0,-943.0,341.0,1009.0,-414.0,494.0,2544.0
1221.0,52.0,923.0,129.0,448.0,-320.0,274.0,2437.0
3200.0,30.0,898.0,75.0,39.0,-285.0,61.0,2054.0
4000.0,26.0,1300.0,36.0,-138.0,-273.0,-100.0,1006.0
3367.0,-111.0,1175.0,37.0,-225.0,-221.0,-345.0,108.0
1365.0,-145.0,1423.0,61.0,-287.0,-210.0,-239.0,1195.0
147.0,-207.0,2094.0,102.0,-374.0,-136.0,-175.0,1727.0
86.0,-214.0,1939.0,142.0,-677.0,-102.0,-226.0,554.0
896.0,-135.0,953.0,204.0,-1052.0,-126.0,-333.0,-206.0
56.0,51.0,148.0,337.0,-1384.0,-123.0,-273.0,-1180.0
-1240.0,225.0,-320.0,285.0,-1768.0,-63.0,140.0,-803.0
-2643.0,328.0,-25.0,169.0,-2094.0,12.0,269.0,-553.0
-1750.0,386.0,89.0,88.0,-2122.0,15.0,311.0,-1396.0
-1235.0,351.0,241.0,-36.0,-2056.0,-29.0,339.0,-1735.0
393.0,253.0,288.0,-224.0,-1992.0,-90.0,185.0,-1803.0
1234.0,41.0,-238.0,-366.0,-1951.0,-43.0,203.0,-1495.0
920.0,-81.0,-409.0,-318.0,-2225.0,-50.0,66.0,-2035.0
1307.0,-122.0,-383.0,-259.0,-2496.0,-125.0,19.0,-2187.0
855.0,-158.0,89.0,-175.0,-2676.0,127.0,-45.0,-999.0
586.0,-241.0,271.0,-186.0,-3018.0,274.0,-181.0,-297.0
-213.0,-213.0,547.0,-245.0,-3237.0,36.0,-253.0,564.0
381.0,-129.0,846.0,-220.0,-3192.0,-169.0,-298.0,600.0
1181.0,-165.0,779.0,-239.0,-3339.0,-221.0,-290.0,338.0
1104.0,-132.0,785.0,-214.0,-3701.0,-73.0,-147.0,1077.0
849.0,-210.0,611.0,-206.0,-3835.0,-33.0,13.0,1462.0
489.0,-318.0,502.0,-155.0,-3767.0,-136.0,17.0,2170.0
408.0,-371.0,480.0,-78.0,-3728.0,-194.0,42.0,1912.0
366.0,-288.0,533.0,-110.0,-3688.0,51.0,62.0,1989.0
370.0,-60.0,533.0,-101.0,-3628.0,329.0,183.0,2042.0
-126.0,124.0,459.0,0.0,-3511.0,229.0,84.0,765.0
-361.0,54.0,202.0,37.0,-3262.0,-35.0,-14.0,1781.0
-468.0,-156.0,-65.0,-3.0,-2777.0,-162.0,6.0,2705.0
-484.0,-178.0,-178.0,28.0,-2224.0,-226.0,-16.0,1912.0
-388.0,-228.0,-153.0,142.0,-1635.0,-259.0,-46.0,601.0
-541.0,-149.0,-85.0,171.0,-1170.0,30.0,-176.0,-46.0
-605.0,-112.0,-132.0,220.0,-1059.0,191.0,-76.0,795.0
-850.0,-57.0,-194.0,337.0,-1194.0,65.0,-66.0,1216.0
-1027.0,73.0,-314.0,590.0,-1292.0,91.0,-161.0,1728.0
-909.0,99.0,-320.0,728.0,-1105.0,-173.0,67.0,2883.0
-684.0,215.0,-247.0,644.0,-850.0,-456.0,250.0,4000.0
-453.0,290.0,-237.0,524.0,-669.0,-251.0,32.0,4000.0
-266.0,309.0,-244.0,207.0,-533.0,-392.0,-161.0,4000.0
-98.0,563.0,-215.0,8.0,-380.0,-611.0,-198.0,4000.0
-80.0,1206.0,-268.0,105.0,-172.0,-398.0,-353.0,3783.0
-295.0,2341.0,-315.0,167.0,-144.0,-210.0,-420.0,2689.0
-396.0,2819.0,-318.0,123.0,-269.0,374.0,-348.0,4000.0
-280.0,1833.0,-416.0,-170.0,-180.0,722.0,-7.0,4000.0
-163.0,774.0,-405.0,-558.0,-14.0,758.0,100.0,3404.0
-140.0,-459.0,-258.0,-690.0,-153.0,693.0,-31.0,2770.0
-296.0,-1590.0,-144.0,-742.0,-261.0,561.0,20.0,3096.0
-510.0,-2269.0,-155.0,-877.0,-225.0,902.0,-35.0,3521.0
-541.0,-2875.0,-177.0,-594.0,-122.0,641.0,103.0,2313.0
-482.0,-2704.0,-186.0,-29.0,60.0,837.0,236.0,-692.0
-481.0,-2423.0,-164.0,199.0,151.0,1417.0,156.0,-1774.0
-201.0,-2122.0,-90.0,27.0,230.0,831.0,254.0,-1998.0
74.0,-1273.0,-70.0,-200.0,97.0,542.0,396.0,-4000.0
202.0,-671.0,-57.0,-74.0,-254.0,1033.0,262.0,-4000.0
269.0,-16.0,36.0,-153.0,-556.0,1531.0,65.0,-4000.0
127.0,2233.0,122.0,-560.0,-631.0,1917.0,181.0,-4000.0
125.0,4000.0,43.0,-645.0,-663.0,1824.0,380.0,-4000.0
112.0,4000.0,-26.0,-951.0,-942.0,1188.0,376.0,-4000.0
55.0,1636.0,-149.0,-1240.0,-1292.0,706.0,141.0,-4000.0
43.0,-299.0,-277.0,-610.0,-1509.0,921.0,-77.0,-3581.0
15.0,-1220.0,-305.0,-222.0,-1552.0,1222.0,49.0,-2350.0
12.0,-3705.0,-204.0,-735.0,-1509.0,743.0,329.0,-798.0
-118.0,-4000.0,-13.0,-336.0,-1463.0,-283.0,409.0,-339.0
-140.0,-3676.0,-26.0,-96.0,-1552.0,-1532.0,356.0,-6.0
-78.0,-2239.0,-109.0,-173.0,-1782.0,-2250.0,297.0,53.0
-169.0,-1055.0,-45.0,276.0,-1945.0,-2725.0,147.0,199.0
-219.0,24.0,77.0,80.0,-1953.0,-3104.0,152.0,304.0
30.0,837.0,70.0,107.0,-1978.0,-1912.0,246.0,236.0
298.0,1766.0,-129.0,130.0,-1898.0,-474.0,126.0,50.0
248.0,2867.0,-228.0,310.0,-1638.0,145.0,148.0,-228.0
138.0,2556.0,-114.0,655.0,-1265.0,491.0,-4.0,-348.0
265.0,1128.0,-85.0,1053.0,-1007.0,480.0,-147.0,-406.0
447.0,-134.0,-29.0,1470.0,-877.0,57.0,-2.0,-366.0
346.0,-901.0,-63.0,1566.0,-376.0,-139.0,20.0,-514.0
72.0,-1415.0,-180.0,2075.0,-69.0,-214.0,30.0,-618.0
121.0,-1442.0,-151.0,2062.0,-263.0,-780.0,202.0,-622.0
260.0,-1336.0,-247.0,1814.0,-133.0,-923.0,359.0,-443.0
228.0,-513.0,-409.0,980.0,199.0,-594.0,161.0,-569.0
228.0,-87.0,-702.0,132.0,302.0,-537.0,-11.0,-1005.0
4.0,151.0,-711.0,-249.0,-59.0,-976.0,-126.0,-1259.0
-156.0,746.0,-370.0,-660.0,-395.0,-1245.0,-214.0,-1672.0
-247.0,811.0,-198.0,-571.0,-781.0,-1172.0,-159.0,-1841.0
-550.0,868.0,-154.0,-23.0,-1190.0,-1192.0,-172.0,-1514.0
-412.0,780.0,-28.0,1013.0,-311.0,-1227.0,-97.0,-993.0
249.0,803.0,98.0,1059.0,462.0,-1686.0,5.0,-736.0
269.0,711.0,36.0,300.0,-999.0,-1290.0,74.0,-1234.0
-145.0,406.0,4.0,-397.0,-1918.0,-459.0,-45.0,-1613.0
-12.0,135.0,-30.0,-914.0,-612.0,-716.0,-283.0,-692.0
109.0,-25.0,18.0,-1238.0,45.0,-1075.0,-424.0,-122.0
129.0,-78.0,284.0,-1805.0,175.0,-1330.0,-582.0,-613.0
228.0,-93.0,385.0,-1922.0,725.0,-1330.0,-685.0,-818.0
95.0,187.0,242.0,-1805.0,713.0,-940.0,-998.0,-1143.0
-191.0,469.0,50.0,-1728.0,998.0,-510.0,-1032.0,-1430.0
-310.0,1097.0,-101.0,-1722.0,1213.0,73.0,-482.0,-1540.0
-193.0,2624.0,-146.0,-719.0,1786.0,498.0,145.0,-1672.0
2.0,3185.0,-14.0,118.0,2681.0,837.0,608.0,-1534.0
241.0,1291.0,96.0,-2725.0,2630.0,909.0,622.0,-1365.0
358.0,-80.0,246.0,-4000.0,2321.0,596.0,571.0,-776.0
381.0,-1024.0,318.0,-3547.0,2243.0,315.0,439.0,-71.0
495.0,-1812.0,410.0,-1709.0,2503.0,-36.0,185.0,355.0
570.0,-1819.0,376.0,799.0,2516.0,-326.0,104.0,765.0
353.0,-2112.0,-34.0,2187.0,2556.0,-439.0,91.0,1403.0
111.0,-1783.0,-149.0,1591.0,2578.0,-399.0,100.0,1780.0
155.0,-1624.0,42.0,2205.0,2556.0,-289.0,43.0,1989.0
55.0,-1735.0,175.0,3820.0,2825.0,-342.0,48.0,2422.0
36.0,-1441.0,236.0,4000.0,3150.0,-342.0,30.0,2119.0
267.0,264.0,585.0,4000.0,3020.0,-182.0,5.0,1574.0
277.0,1518.0,630.0,3772.0,2695.0,-43.0,-27.0,1207.0
86.0,1803.0,333.0,1184.0,2516.0,152.0,17.0,569.0
-4.0,2209.0,244.0,-632.0,2243.0,343.0,181.0,119.0
-53.0,1843.0,-47.0,-1347.0,1189.0,713.0,107.0,-553.0
-153.0,1803.0,-287.0,-874.0,440.0,1134.0,27.0,-776.0
-129.0,1833.0,-159.0,1748.0,1694.0,1378.0,54.0,-492.0
-151.0,2298.0,121.0,-1157.0,2683.0,1462.0,94.0,-1579.0
-307.0,4000.0,18.0,-4000.0,3428.0,1720.0,154.0,-1632.0
-314.0,4000.0,-143.0,-3880.0,4000.0,2124.0,200.0,947.0
-245.0,4000.0,-118.0,-1303.0,4000.0,2100.0,214.0,2054.0
-212.0,4000.0,-138.0,2282.0,4000.0,2124.0,188.0,1468.0
-61.0,1908.0,-24.0,4000.0,4000.0,2359.0,188.0,1781.0
-42.0,-3058.0,-84.0,3755.0,3659.0,2567.0,178.0,1836.0
-32.0,-4000.0,-105.0,4000.0,3428.0,2888.0,200.0,1895.0
-62.0,-4000.0,-106.0,2344.0,3802.0,3125.0,167.0,1532.0
-166.0,-4000.0,17.0,2478.0,3606.0,3398.0,105.0,882.0
-220.0,-4000.0,99.0,2193.0,2578.0,3655.0,106.0,731.0
-146.0,-4000.0,47.0,-1435.0,1521.0,3857.0,54.0,456.0
220.0,-4000.0,17.0,-4000.0,-82.0,3996.0,-233.0,361.0
538.0,-2875.0,71.0,-4000.0,-1508.0,4000.0,-420.0,390.0
686.0,-2951.0,318.0,-4000.0,-724.0,4000.0,-188.0,666.0
382.0,-2595.0,242.0,-4000.0,1645.0,3742.0,144.0,591.0
-286.0,-3461.0,439.0,-4000.0,1644.0,3409.0,492.0,-24.0
-533.0,-3619.0,621.0,-4000.0,-207.0,3202.0,563.0,-382.0
-417.0,-3343.0,585.0,-1887.0,-528.0,3072.0,460.0,-555.0
-301.0,-3213.0,573.0,-385.0,1462.0,2905.0,303.0,-1115.0
-96.0,-1141.0,248.0,545.0,2695.0,2759.0,181.0,-2244.0
-16.0,1012.0,-198.0,1125.0,2019.0,2580.0,168.0,-3582.0
10.0,2738.0,-557.0,2258.0,10.0,2295.0,65.0,-3708.0
204.0,4000.0,-759.0,2781.0,-2735.0,2046.0,5.0,-3020.0
314.0,4000.0,-702.0,2592.0,-4000.0,1864.0,-68.0,-3047.0
208.0,4000.0,-414.0,4000.0,-4000.0,1525.0,24.0,-1904.0
72.0,4000.0,-170.0,4000.0,-3883.0,1124.0,217.0,373.0
-74.0,4000.0,-95.0,4000.0,-2434.0,858.0,551.0,2118.0
-156.0,4000.0,-136.0,4000.0,-2081.0,723.0,637.0,3096.0
-37.0,4000.0,-63.0,3969.0,-1272.0,801.0,457.0,2675.0
-31.0,4000.0,113.0,2530.0,-1182.0,941.0,416.0,1216.0
-61.0,3127.0,147.0,1954.0,-883.0,1075.0,311.0,1728.0
-98.0,1937.0,-80.0,1104.0,-724.0,997.0,91.0,2754.0
-192.0,933.0,-255.0,538.0,-1609.0,758.0,-56.0,2095.0
-221.0,-145.0,-344.0,-224.0,-1795.0,479.0,-156.0,1241.0
-234.0,-901.0,-128.0,190.0,-2081.0,77.0,-403.0,409.0
-150.0,-1601.0,201.0,1184.0,-2611.0,-314.0,-424.0,-207.0
40.0,-923.0,223.0,1013.0,-3262.0,-639.0,-458.0,-753.0
138.0,817.0,332.0,548.0,-4000.0,-838.0,-530.0,-1078.0
74.0,98.0,498.0,190.0,-4000.0,-940.0,-658.0,-1250.0
-135.0,-992.0,611.0,236.0,-4000.0,-989.0,-769.0,-1430.0
-303.0,-1155.0,590.0,-445.0,-4000.0,-1053.0,-565.0,-1469.0
-250.0,-822.0,454.0,-1500.0,-4000.0,-1188.0,-141.0,-1579.0
-193.0,49.0,62.0,-2055.0,-4000.0,-1387.0,71.0,-1558.0
-189.0,26.0,-466.0,-1990.0,-4000.0,-1727.0,-98.0,-1579.0
-162.0,-151.0,-694.0,-1952.0,-4000.0,-2119.0,-603.0,-1432.0
-61.0,-146.0,-413.0,-2093.0,-4000.0,-2527.0,-1030.0,-1213.0
12.0,-6.0,3.0,-1626.0,-4000.0,-2867.0,-1178.0,-948.0
-104.0,-19.0,125.0,-951.0,-4000.0,-3181.0,-1162.0,-422.0
-188.0,-26.0,252.0,-784.0,-4000.0,-3405.0,-711.0,238.0
-106.0,122.0,316.0,-687.0,-4000.0,-3659.0,-412.0,499.0
26.0,134.0,328.0,-299.0,-1802.0,-3910.0,-336.0,470.0
100.0,149.0,361.0,310.0,4000.0,-4000.0,-743.0,548.0
64.0,92.0,309.0,287.0,4000.0,-4000.0,-723.0,394.0
9.0,91.0,278.0,251.0,4000.0,-4000.0,-485.0,293.0
7.0,57.0,217.0,390.0,4000.0,-4000.0,-685.0,195.0
95.0,87.0,166.0,207.0,4000.0,-4000.0,-676.0,67.0
147.0,77.0,150.0,313.0,4000.0,-4000.0,-743.0,18.0
202.0,56.0,72.0,196.0,4000.0,-4000.0,-644.0,-34.0
212.0,50.0,-53.0,198.0,4000.0,-4000.0,-394.0,247.0
98.0,-27.0,-103.0,169.0,4000.0,-3925.0,-66.0,1000.0
-8.0,-42.0,-72.0,189.0,4000.0,-3579.0,24.0,1728.0
-164.0,-33.0,-23.0,166.0,4000.0,-3179.0,41.0,1846.0
-78.0,-21.0,18.0,75.0,4000.0,-2839.0,238.0,1842.0
145.0,-50.0,-5.0,37.0,4000.0,-2545.0,481.0,1859.0
263.0,-79.0,-12.0,-72.0,4000.0,-2144.0,702.0,1818.0
222.0,-111.0,35.0,-48.0,4000.0,-1688.0,667.0,1859.0
149.0,-148.0,49.0,-132.0,4000.0,-1097.0,759.0,1833.0
241.0,-171.0,6.0,-148.0,870.0,-515.0,791.0,1793.0
187.0,-179.0,-30.0,-191.0,-4000.0,-129.0,677.0,1727.0
-81.0,-235.0,-82.0,-146.0,-4000.0,216.0,983.0,1688.0
-315.0,-273.0,-123.0,-107.0,-4000.0,524.0,1341.0,1633.0
-138.0,-239.0,-94.0,-127.0,-4000.0,778.0,1184.0,1476.0
-113.0,-222.0,-129.0,-105.0,-4000.0,1026.0,921.0,1403.0
-248.0,-247.0,-154.0,-123.0,-4000.0,1083.0,791.0,1307.0
-221.0,-215.0,-112.0,-120.0,-4000.0,1033.0,738.0,1077.0
-261.0,-179.0,-160.0,-163.0,-4000.0,1026.0,1149.0,851.0
-208.0,-220.0,-203.0,-175.0,-4000.0,1013.0,1534.0,648.0
-145.0,-209.0,-206.0,-188.0,-4000.0,919.0,1475.0,474.0
-453.0,-208.0,-215.0,-173.0,-4000.0,786.0,1280.0,414.0
-844.0,-181.0,-180.0,-174.0,-4000.0,669.0,1060.0,341.0
-719.0,-172.0,-114.0,-152.0,-4000.0,641.0,832.0,341.0
-248.0,-169.0,-76.0,-103.0,-4000.0,628.0,597.0,349.0
-20.0,-117.0,-166.0,-157.0,-4000.0,615.0,595.0,286.0
110.0,-110.0,-290.0,-239.0,-4000.0,636.0,467.0,202.0
107.0,-139.0,-255.0,-271.0,-4000.0,577.0,209.0,108.0
-101.0,-115.0,-124.0,-322.0,-4000.0,542.0,172.0,63.0
-317.0,-53.0,-26.0,-316.0,-4000.0,526.0,268.0,67.0
-599.0,-57.0,-169.0,-316.0,-3213.0,471.0,433.0,70.0
-203.0,-47.0,-559.0,-344.0,-1795.0,160.0,380.0,14.0
385.0,-40.0,-768.0,-253.0,-1169.0,-596.0,223.0,-20.0
1026.0,-40.0,-532.0,-152.0,-466.0,-1526.0,-69.0,-87.0
1384.0,-53.0,-292.0,-107.0,154.0,-2315.0,-363.0,-201.0
1051.0,-153.0,-205.0,-85.0,778.0,-2996.0,-418.0,-234.0
812.0,-182.0,-121.0,-63.0,1352.0,-4000.0,-493.0,-324.0
498.0,-148.0,-151.0,-41.0,2776.0,-4000.0,-613.0,-489.0
406.0,-69.0,-152.0,-44.0,4000.0,-4000.0,-745.0,-659.0
281.0,-26.0,-373.0,-10.0,4000.0,-4000.0,-882.0,-862.0
-295.0,-14.0,-442.0,48.0,4000.0,-4000.0,-849.0,-1046.0
-1619.0,22.0,-220.0,47.0,2124.0,-4000.0,-797.0,-1265.0
-1834.0,10.0,-44.0,22.0,134.0,-4000.0,-859.0,-1461.0
342.0,-17.0,84.0,33.0,-1359.0,-4000.0,-929.0,-1558.0
1623.0,-31.0,60.0,16.0,-1638.0,-3946.0,-1048.0,-1707.0
1670.0,-10.0,190.0,26.0,-327.0,-3010.0,-1005.0,-1774.0
935.0,-10.0,389.0,44.0,1538.0,-2228.0,-882.0,-1774.0
-41.0,-38.0,467.0,34.0,2760.0,-1452.0,-774.0,-1762.0
-474.0,-16.0,88.0,30.0,4000.0,-1010.0,-576.0,-1774.0
-698.0,-5.0,-206.0,30.0,4000.0,-997.0,-542.0,-1803.0
-571.0,-22.0,-138.0,34.0,4000.0,-1103.0,-555.0,-1801.0
-445.0,22.0,46.0,40.0,4000.0,-1026.0,-533.0,-1820.0
-654.0,67.0,333.0,15.0,4000.0,-781.0,-394.0,-1782.0
-1324.0,90.0,354.0,19.0,4000.0,-352.0,-88.0,-1762.0
-1233.0,129.0,237.0,32.0,3606.0,315.0,73.0,-1735.0
-685.0,145.0,-14.0,21.0,3606.0,1136.0,77.0,-1626.0
-354.0,155.0,-155.0,33.0,3989.0,1994.0,-37.0,-1475.0
-138.0,130.0,-55.0,28.0,4000.0,2888.0,-27.0,-1325.0
-19.0,78.0,-55.0,27.0,4000.0,3900.0,-6.0,-1111.0
85.0,49.0,-340.0,49.0,4000.0,4000.0,-135.0,-875.0
42.0,33.0,-242.0,18.0,4000.0,4000.0,-10.0,-710.0
86.0,15.0,44.0,-13.0,4000.0,4000.0,123.0,-492.0
-221.0,25.0,114.0,-32.0,4000.0,4000.0,391.0,-324.0
-474.0,52.0,217.0,-21.0,4000.0,4000.0,687.0,-150.0
68.0,49.0,15.0,-31.0,4000.0,4000.0,652.0,1.0
689.0,36.0,-83.0,-91.0,4000.0,4000.0,300.0,131.0
733.0,-22.0,-46.0,-91.0,4000.0,4000.0,54.0,294.0
633.0,-26.0,-50.0,-85.0,4000.0,4000.0,134.0,456.0
436.0,28.0,36.0,-63.0,4000.0,4000.0,391.0,629.0
393.0,6.0,137.0,-40.0,4000.0,4000.0,681.0,719.0
563.0,-8.0,165.0,-55.0,4000.0,4000.0,642.0,760.0
689.0,-63.0,74.0,-20.0,4000.0,4000.0,404.0,804.0
576.0,-63.0,84.0,13.0,4000.0,4000.0,129.0,853.0
538.0,-21.0,135.0,6.0,4000.0,4000.0,47.0,890.0
447.0,21.0,150.0,7.0,4000.0,4000.0,-16.0,890.0
109.0,45.0,195.0,-9.0,4000.0,4000.0,-180.0,896.0
80.0,-27.0,215.0,4.0,4000.0,4000.0,-238.0,896.0
-33.0,-11.0,225.0,35.0,3541.0,3658.0,-239.0,881.0
-96.0,25.0,266.0,22.0,1604.0,3409.0,-122.0,876.0
-106.0,50.0,241.0,10.0,-474.0,3101.0,-68.0,863.0
-417.0,58.0,215.0,13.0,-2277.0,2577.0,-290.0,817.0
-527.0,49.0,229.0,-31.0,-3510.0,1937.0,-458.0,860.0
-114.0,55.0,228.0,-97.0,-3066.0,1325.0,-261.0,981.0
100.0,71.0,203.0,-88.0,-2116.0,701.0,310.0,1085.0
-47.0,80.0,166.0,-76.0,-3446.0,249.0,684.0,1142.0
-13.0,56.0,149.0,-83.0,-4000.0,156.0,782.0,1128.0
16.0,64.0,134.0,-97.0,-4000.0,61.0,746.0,1136.0
-236.0,34.0,165.0,-91.0,-4000.0,-493.0,571.0,1150.0
-821.0,46.0,120.0,-71.0,-4000.0,-1245.0,734.0,1053.0
-1162.0,43.0,24.0,-80.0,-4000.0,-2113.0,673.0,1000.0
-909.0,29.0,-33.0,-90.0,-4000.0,-3298.0,481.0,947.0
-909.0,47.0,-81.0,-88.0,-4000.0,-4000.0,348.0,938.0
-2051.0,45.0,-92.0,-68.0,-4000.0,-4000.0,41.0,914.0
-1947.0,30.0,-93.0,-28.0,-4000.0,-4000.0,-161.0,851.0
391.0,-47.0,-108.0,-36.0,-4000.0,-4000.0,-189.0,831.0
1767.0,-89.0,-113.0,-83.0,-4000.0,-4000.0,89.0,751.0
2157.0,-75.0,-152.0,-91.0,-4000.0,-4000.0,506.0,666.0
1559.0,-57.0,-157.0,-36.0,-4000.0,-4000.0,759.0,609.0
769.0,9.0,-138.0,-18.0,-4000.0,-4000.0,548.0,584.0
378.0,66.0,-141.0,-14.0,-4000.0,-4000.0,359.0,556.0
-47.0,89.0,-135.0,-42.0,-4000.0,-4000.0,283.0,490.0
31.0,99.0,-143.0,-45.0,-4000.0,-4000.0,131.0,438.0
-99.0,41.0,-126.0,-9.0,-4000.0,-3506.0,265.0,408.0
-271.0,52.0,-108.0,22.0,-4000.0,-2815.0,368.0,348.0
-523.0,12.0,-75.0,55.0,-4000.0,-1995.0,181.0,279.0
-323.0,-122.0,-56.0,50.0,-4000.0,-964.0,21.0,239.0
-437.0,-214.0,-13.0,71.0,-4000.0,-178.0,-323.0,187.0
-502.0,-165.0,2.0,75.0,-4000.0,532.0,-789.0,156.0
-75.0,-8.0,-26.0,77.0,-3380.0,1247.0,-861.0,158.0
184.0,33.0,7.0,92.0,-2550.0,1666.0,-594.0,127.0
277.0,31.0,-3.0,120.0,-1945.0,1824.0,-363.0,105.0
127.0,55.0,-15.0,116.0,-1463.0,1901.0,-493.0,153.0
184.0,55.0,2.0,118.0,-1202.0,1839.0,-723.0,196.0
109.0,43.0,31.0,126.0,-1320.0,1898.0,-846.0,142.0
104.0,0.0,53.0,81.0,-1200.0,2159.0,-1006.0,126.0
-55.0,-31.0,85.0,74.0,-987.0,2243.0,-1136.0,174.0
-168.0,-22.0,83.0,81.0,-1012.0,2124.0,-946.0,201.0
-136.0,-4.0,68.0,138.0,-1250.0,1917.0,-298.0,344.0
-144.0,2.0,80.0,85.0,-1249.0,1628.0,135.0,399.0
-4.0,43.0,19.0,6.0,-863.0,1409.0,-36.0,243.0
2.0,99.0,-20.0,126.0,-189.0,1263.0,-149.0,221.0
-422.0,125.0,56.0,157.0,367.0,1189.0,-62.0,206.0
-1882.0,96.0,12.0,78.0,902.0,1214.0,16.0,137.0
-1931.0,20.0,-159.0,84.0,1592.0,1323.0,2.0,87.0
393.0,-33.0,-373.0,77.0,2425.0,1417.0,66.0,51.0
1702.0,-53.0,-576.0,52.0,3102.0,1508.0,129.0,2.0
2191.0,-108.0,-217.0,31.0,3269.0,1344.0,22.0,-76.0
2144.0,-52.0,174.0,27.0,3008.0,986.0,27.0,-109.0
1485.0,24.0,253.0,26.0,2439.0,738.0,95.0,-159.0
1025.0,-72.0,337.0,69.0,1775.0,544.0,97.0,-219.0
408.0,-137.0,183.0,96.0,1227.0,390.0,0.0,-301.0
56.0,-193.0,-11.0,5.0,1018.0,445.0,-84.0,-397.0
-301.0,-111.0,-206.0,-57.0,513.0,628.0,-94.0,-492.0
-584.0,-100.0,-242.0,-136.0,-256.0,831.0,-28.0,-572.0
-909.0,-108.0,9.0,-160.0,-1072.0,896.0,-46.0,-655.0
-915.0,22.0,299.0,-91.0,-1915.0,693.0,-205.0,-744.0
-592.0,95.0,385.0,59.0,-2145.0,497.0,-210.0,-744.0
-372.0,251.0,148.0,165.0,-2063.0,403.0,-112.0,-738.0
-76.0,347.0,-17.0,91.0,-1898.0,526.0,-66.0,-710.0
27.0,355.0,-64.0,28.0,-1589.0,738.0,-102.0,-711.0
135.0,282.0,-389.0,15.0,-1436.0,831.0,-178.0,-736.0
187.0,207.0,-976.0,-99.0,-1489.0,888.0,-294.0,-679.0
82.0,53.0,-1081.0,-293.0,-1817.0,811.0,-327.0,-692.0
-244.0,-225.0,-1036.0,-365.0,-2238.0,596.0,-280.0,-706.0
-502.0,-379.0,-1041.0,-332.0,-2180.0,616.0,-247.0,-683.0
-323.0,-306.0,99.0,-409.0,-1817.0,706.0,-391.0,-738.0
-107.0,-107.0,1047.0,-371.0,-1671.0,636.0,-615.0,-796.0
13.0,-41.0,1296.0,-156.0,-1619.0,583.0,-607.0,-779.0
66.0,-22.0,1314.0,-51.0,-1052.0,471.0,-411.0,-653.0
49.0,-85.0,646.0,-79.0,-182.0,262.0,-195.0,-643.0
-23.0,-149.0,207.0,-50.0,635.0,232.0,-121.0,-671.0
-50.0,-175.0,-22.0,95.0,1601.0,368.0,-46.0,-563.0
48.0,-109.0,-450.0,116.0,2748.0,375.0,148.0,-644.0
139.0,24.0,-661.0,169.0,3853.0,441.0,368.0,-557.0
183.0,73.0,-511.0,203.0,4000.0,374.0,661.0,-457.0
263.0,144.0,-328.0,161.0,4000.0,87.0,832.0,-557.0
322.0,167.0,-292.0,199.0,4000.0,174.0,824.0,-454.0
277.0,133.0,-501.0,189.0,4000.0,158.0,889.0,-431.0
269.0,102.0,-580.0,96.0,4000.0,11.0,1052.0,-424.0
314.0,94.0,-303.0,23.0,4000.0,21.0,858.0,-348.0
202.0,-58.0,-141.0,29.0,3529.0,-101.0,571.0,-354.0
-104.0,-224.0,-24.0,29.0,3332.0,-68.0,876.0,-226.0
-352.0,-206.0,88.0,2.0,3855.0,-39.0,1280.0,-183.0
-360.0,-108.0,150.0,-23.0,4000.0,-93.0,1520.0,-207.0
-157.0,20.0,187.0,-28.0,4000.0,-88.0,1469.0,-234.0
89.0,79.0,272.0,-45.0,3837.0,-224.0,1149.0,-315.0
108.0,112.0,372.0,-26.0,2513.0,-306.0,1013.0,-301.0
77.0,102.0,364.0,-10.0,1083.0,-510.0,795.0,-262.0
97.0,57.0,313.0,7.0,224.0,-591.0,613.0,-180.0
27.0,17.0,268.0,-2.0,-143.0,-419.0,523.0,-118.0
-30.0,-2.0,223.0,-32.0,151.0,-196.0,510.0,-39.0
-889.0,28.0,166.0,-20.0,716.0,-69.0,867.0,72.0
-2938.0,49.0,147.0,-29.0,484.0,-224.0,824.0,56.0
-2031.0,30.0,85.0,-38.0,-175.0,-407.0,326.0,71.0
1307.0,-7.0,45.0,-36.0,-993.0,-555.0,78.0,141.0
2663.0,-20.0,39.0,13.0,-1849.0,-661.0,-30.0,131.0
3648.0,-99.0,8.0,-8.0,-2550.0,-875.0,34.0,139.0
2809.0,-188.0,-16.0,-29.0,-2435.0,-1050.0,481.0,203.0
1108.0,-141.0,-60.0,7.0,-1654.0,-1140.0,616.0,176.0
69.0,-87.0,-147.0,-25.0,-714.0,-1183.0,309.0,182.0
-649.0,-97.0,-87.0,-54.0,-81.0,-1127.0,-88.0,228.0
-649.0,-22.0,219.0,-112.0,-244.0,-1200.0,-572.0,242.0
-941.0,53.0,533.0,-97.0,-751.0,-1261.0,-729.0,267.0
-1003.0,121.0,325.0,-76.0,-1918.0,-1265.0,-493.0,261.0
-1524.0,205.0,-154.0,-32.0,-3018.0,-1135.0,-48.0,267.0
-1978.0,176.0,-212.0,50.0,-3867.0,-816.0,176.0,254.0
-2582.0,150.0,30.0,87.0,-4000.0,-419.0,181.0,290.0
-2545.0,152.0,163.0,62.0,-4000.0,4.0,151.0,291.0
-2024.0,174.0,147.0,-7.0,-4000.0,391.0,-90.0,288.0
-1075.0,116.0,-48.0,18.0,-4000.0,752.0,-420.0,304.0
538.0,60.0,-133.0,54.0,-4000.0,882.0,-774.0,258.0
1420.0,30.0,-53.0,-36.0,-4000.0,837.0,-1051.0,290.0
2222.0,-35.0,-225.0,-124.0,-4000.0,876.0,-1169.0,292.0
2284.0,-19.0,-270.0,-115.0,-4000.0,687.0,-946.0,276.0
1767.0,-214.0,-76.0,-80.0,-4000.0,315.0,-924.0,247.0
855.0,-286.0,-72.0,-157.0,-4000.0,76.0,-1187.0,259.0
121.0,-144.0,-503.0,-206.0,-4000.0,79.0,-769.0,387.0
-40.0,-49.0,-531.0,-79.0,-4000.0,394.0,154.0,369.0
-3.0,13.0,-134.0,6.0,-4000.0,837.0,528.0,328.0
99.0,30.0,-59.0,-24.0,-4000.0,1344.0,168.0,258.0
-71.0,144.0,51.0,-36.0,-3582.0,1703.0,-161.0,210.0
-163.0,182.0,170.0,21.0,-2660.0,1799.0,-162.0,269.0
-343.0,176.0,212.0,33.0,-2231.0,1864.0,-394.0,188.0
-310.0,109.0,169.0,-45.0,-2181.0,1842.0,-548.0,145.0
-218.0,57.0,73.0,-168.0,-2065.0,1768.0,-644.0,182.0
-79.0,53.0,107.0,-228.0,-2451.0,1669.0,-538.0,228.0
-56.0,24.0,335.0,-120.0,-2434.0,1666.0,-116.0,236.0
-58.0,49.0,439.0,-56.0,-2187.0,1604.0,297.0,169.0
-143.0,49.0,303.0,-76.0,-1442.0,1488.0,554.0,174.0
-320.0,46.0,146.0,-93.0,-11.0,1253.0,254.0,83.0
-215.0,81.0,11.0,-105.0,701.0,831.0,185.0,38.0
-193.0,99.0,-4.0,-69.0,1270.0,336.0,62.0,15.0
-164.0,45.0,26.0,-3.0,1592.0,-118.0,-31.0,-44.0
-166.0,22.0,51.0,27.0,2251.0,-375.0,87.0,-75.0
-184.0,-64.0,-42.0,-22.0,3085.0,-570.0,-23.0,-154.0
-142.0,-53.0,-160.0,-56.0,3476.0,-657.0,-104.0,-88.0
-39.0,79.0,-190.0,-15.0,3529.0,-856.0,-136.0,-63.0
-33.0,29.0,-204.0,11.0,3143.0,-1107.0,-7.0,-73.0
16.0,58.0,-126.0,41.0,2825.0,-1198.0,-78.0,-104.0
119.0,103.0,-83.0,103.0,2810.0,-1330.0,-187.0,70.0
151.0,37.0,-56.0,76.0,2878.0,-1526.0,-276.0,304.0
112.0,25.0,-31.0,52.0,2813.0,-1715.0,-475.0,196.0
31.0,-35.0,-36.0,81.0,2695.0,-1886.0,-640.0,-15.0
34.0,-161.0,-13.0,102.0,2320.0,-2089.0,-745.0,-190.0
-4.0,-165.0,-5.0,149.0,2241.0,-2209.0,-839.0,-424.0
0.0,-84.0,-3.0,133.0,2178.0,-2274.0,-940.0,-769.0
11.0,-117.0,32.0,85.0,2124.0,-2171.0,-876.0,-990.0
-12.0,-26.0,1.0,42.0,2296.0,-2016.0,-750.0,-1058.0
-13.0,47.0,-107.0,-56.0,2776.0,-1818.0,-638.0,-1208.0
27.0,1.0,-125.0,-137.0,3744.0,-1505.0,-412.0,-736.0
31.0,57.0,-183.0,-190.0,4000.0,-1290.0,-176.0,182.0
-451.0,41.0,-109.0,-225.0,3903.0,-1251.0,-104.0,91.0
-2173.0,33.0,48.0,-88.0,3558.0,-1115.0,-62.0,-297.0
-2903.0,-40.0,89.0,-16.0,3071.0,-852.0,-71.0,-377.0
-1084.0,-102.0,76.0,-14.0,3020.0,-707.0,-58.0,-431.0
370.0,-171.0,47.0,-18.0,4000.0,-521.0,-11.0,-357.0
1962.0,-188.0,33.0,-35.0,4000.0,-433.0,126.0,-724.0
3249.0,-151.0,23.0,4.0,4000.0,-489.0,223.0,-750.0
2976.0,-141.0,168.0,16.0,3982.0,-613.0,284.0,-297.0
2157.0,-52.0,212.0,-38.0,3334.0,-630.0,433.0,-357.0
768.0,-10.0,146.0,-86.0,2556.0,-620.0,341.0,-101.0
260.0,19.0,-72.0,-88.0,1669.0,-635.0,299.0,367.0
85.0,8.0,-552.0,-33.0,1604.0,-469.0,280.0,190.0
17.0,-42.0,-497.0,-13.0,1865.0,-305.0,253.0,228.0
82.0,-23.0,37.0,-9.0,2124.0,-3.0,189.0,230.0
-236.0,45.0,231.0,65.0,2060.0,283.0,106.0,261.0
-445.0,76.0,272.0,61.0,1799.0,390.0,169.0,490.0
-802.0,38.0,204.0,121.0,1405.0,429.0,210.0,522.0
-880.0,5.0,231.0,204.0,676.0,506.0,166.0,629.0
-539.0,42.0,219.0,128.0,72.0,597.0,61.0,556.0
-418.0,30.0,-86.0,-34.0,-502.0,576.0,-48.0,597.0
-493.0,50.0,-95.0,-66.0,-751.0,613.0,-331.0,489.0
-449.0,124.0,6.0,-23.0,-903.0,738.0,-472.0,312.0
-341.0,170.0,28.0,-53.0,-1064.0,813.0,-442.0,293.0
-176.0,176.0,-76.0,-9.0,-1234.0,811.0,-420.0,290.0
-177.0,117.0,-86.0,23.0,-1439.0,752.0,-288.0,485.0
-104.0,158.0,69.0,22.0,-1455.0,628.0,-162.0,692.0
-51.0,178.0,89.0,-20.0,-1398.0,571.0,-117.0,853.0
-167.0,125.0,30.0,-71.0,-1369.0,563.0,-176.0,919.0
-152.0,51.0,-4.0,-71.0,-1137.0,571.0,-189.0,674.0
-183.0,-20.0,48.0,-12.0,-811.0,510.0,-283.0,243.0
-193.0,-16.0,139.0,80.0,-665.0,376.0,-464.0,-42.0
-234.0,-72.0,189.0,63.0,-602.0,168.0,-459.0,-312.0
-213.0,-160.0,109.0,-6.0,-751.0,-19.0,-373.0,-549.0
-104.0,-231.0,-51.0,-105.0,-744.0,-133.0,-69.0,-638.0
-20.0,-200.0,-277.0,-196.0,-220.0,-93.0,416.0,-287.0
-63.0,-182.0,-382.0,-158.0,570.0,171.0,687.0,-240.0
-101.0,-114.0,-291.0,-39.0,1193.0,170.0,903.0,-627.0
-63.0,-86.0,-159.0,7.0,1026.0,-113.0,909.0,65.0
-102.0,-307.0,-90.0,-5.0,544.0,-417.0,600.0,459.0
-71.0,-407.0,-38.0,-6.0,-93.0,-733.0,355.0,216.0
-58.0,-375.0,42.0,32.0,-614.0,-1005.0,329.0,404.0
-75.0,-72.0,7.0,31.0,-782.0,-1205.0,464.0,239.0
-18.0,86.0,47.0,-11.0,-877.0,-1422.0,587.0,239.0
52.0,23.0,54.0,25.0,-1055.0,-1550.0,543.0,235.0
104.0,22.0,23.0,16.0,-1310.0,-1509.0,472.0,221.0
116.0,-135.0,16.0,41.0,-1508.0,-1532.0,253.0,237.0
169.0,27.0,-82.0,77.0,-1560.0,-1512.0,-4.0,200.0
170.0,200.0,-122.0,21.0,-1528.0,-1372.0,130.0,239.0
162.0,384.0,-104.0,8.0,-1508.0,-1121.0,172.0,190.0
142.0,516.0,-231.0,16.0,-1129.0,-802.0,315.0,230.0
2.0,395.0,179.0,-12.0,-710.0,-680.0,494.0,170.0
-109.0,282.0,585.0,-32.0,-207.0,-548.0,548.0,125.0
-96.0,11.0,-121.0,-32.0,556.0,-308.0,693.0,106.0
-2.0,-102.0,-1288.0,-68.0,1279.0,28.0,889.0,91.0
-5.0,-56.0,-886.0,-67.0,1930.0,339.0,1072.0,56.0
-3.0,-135.0,736.0,-86.0,2386.0,586.0,693.0,87.0
66.0,-497.0,1171.0,-57.0,2695.0,1083.0,249.0,100.0
60.0,-390.0,1322.0,-26.0,2838.0,1508.0,53.0,60.0
69.0,23.0,771.0,-71.0,2842.0,1573.0,177.0,85.0
118.0,-29.0,38.0,-52.0,2882.0,1734.0,409.0,41.0
157.0,10.0,-143.0,-33.0,2943.0,2905.0,425.0,34.0
131.0,145.0,-515.0,-17.0,2943.0,4000.0,319.0,53.0
32.0,87.0,-385.0,14.0,2878.0,4000.0,168.0,70.0
-72.0,67.0,-138.0,51.0,2760.0,4000.0,-55.0,-22.0
-58.0,70.0,-31.0,81.0,2578.0,4000.0,0.0,-76.0
3.0,114.0,-192.0,73.0,2569.0,4000.0,464.0,-17.0
-45.0,134.0,-190.0,98.0,2513.0,4000.0,458.0,-32.0
-78.0,99.0,-159.0,81.0,2569.0,4000.0,457.0,-63.0
-95.0,106.0,-143.0,69.0,2363.0,4000.0,254.0,-33.0
-27.0,108.0,45.0,106.0,2125.0,3409.0,-162.0,-4.0
62.0,151.0,205.0,125.0,2231.0,2512.0,-134.0,16.0
119.0,135.0,269.0,85.0,1733.0,2060.0,-102.0,66.0
211.0,103.0,317.0,60.0,882.0,902.0,-66.0,140.0
255.0,119.0,359.0,63.0,208.0,-790.0,-237.0,208.0
209.0,93.0,250.0,-25.0,-41.0,-2839.0,-228.0,241.0
147.0,34.0,65.0,-134.0,-216.0,-4000.0,-123.0,296.0
45.0,-54.0,-200.0,-239.0,-616.0,-4000.0,-145.0,322.0
-155.0,-106.0,-1353.0,-290.0,-1098.0,-4000.0,-104.0,377.0
-453.0,-88.0,-3225.0,-202.0,-1498.0,-3919.0,-163.0,487.0
-679.0,-46.0,-2639.0,-131.0,-1784.0,-4000.0,-169.0,483.0
-476.0,-21.0,-433.0,-111.0,-2147.0,-4000.0,-127.0,487.0
-158.0,27.0,1574.0,-128.0,-2389.0,-4000.0,-44.0,497.0
23.0,64.0,3499.0,-101.0,-2561.0,-4000.0,-71.0,426.0
-541.0,-31.0,2975.0,-103.0,-2611.0,-3600.0,-94.0,304.0
-1560.0,-125.0,1704.0,-103.0,-2741.0,-1988.0,-10.0,127.0
-909.0,-179.0,1249.0,-76.0,-3014.0,-678.0,83.0,-52.0
530.0,-108.0,1098.0,-57.0,-3321.0,168.0,103.0,-234.0
1634.0,5.0,689.0,-1.0,-3474.0,876.0,50.0,-419.0
2523.0,12.0,385.0,26.0,-3474.0,1026.0,89.0,-638.0
2549.0,17.0,122.0,2.0,-3575.0,535.0,103.0,-853.0
2146.0,-15.0,-411.0,5.0,-3628.0,241.0,102.0,-1013.0
1026.0,-5.0,-912.0,26.0,-3521.0,-12.0,126.0,-1191.0
149.0,70.0,-1166.0,64.0,-3148.0,303.0,140.0,-1324.0
-357.0,68.0,-1153.0,88.0,-2857.0,831.0,165.0,-1469.0
-795.0,67.0,-1101.0,51.0,-2651.0,1018.0,124.0,-1643.0
-1621.0,93.0,-585.0,-43.0,-2496.0,902.0,142.0,-1772.0
-2631.0,9.0,-505.0,-143.0,-2406.0,510.0,196.0,-1924.0
-2203.0,-68.0,-531.0,-53.0,-2247.0,394.0,141.0,-2062.0
-1642.0,27.0,-487.0,89.0,-2140.0,601.0,178.0,-2146.0
-453.0,34.0,-311.0,99.0,-1854.0,1006.0,265.0,-2189.0
798.0,17.0,-160.0,106.0,-1508.0,734.0,167.0,-2153.0
994.0,37.0,-168.0,73.0,-793.0,401.0,98.0,-1998.0
1281.0,36.0,-112.0,115.0,-264.0,693.0,86.0,-1743.0
1116.0,72.0,-186.0,98.0,-947.0,998.0,27.0,-1469.0
855.0,-19.0,-45.0,22.0,-1782.0,641.0,-41.0,-1135.0
725.0,-160.0,101.0,23.0,-1666.0,497.0,-290.0,-818.0
717.0,-188.0,142.0,-25.0,-803.0,594.0,-327.0,-471.0
870.0,-175.0,-30.0,-36.0,-61.0,455.0,27.0,-137.0
758.0,-145.0,-90.0,-122.0,200.0,528.0,73.0,170.0
351.0,-86.0,-78.0,-206.0,267.0,216.0,18.0,414.0
-123.0,-70.0,-70.0,-206.0,-7.0,183.0,72.0,609.0
-893.0,-18.0,-43.0,-174.0,-198.0,66.0,50.0,788.0
-1110.0,57.0,-102.0,-140.0,-450.0,-149.0,47.0,939.0
-836.0,91.0,-26.0,-97.0,-782.0,-222.0,-20.0,1077.0
-957.0,99.0,82.0,42.0,-918.0,-416.0,0.0,1142.0
-1288.0,79.0,174.0,130.0,-1200.0,-346.0,-29.0,1272.0
-1801.0,-4.0,166.0,116.0,-1114.0,-354.0,-98.0,1372.0
-1752.0,-29.0,150.0,20.0,-967.0,-277.0,-108.0,1437.0
-1019.0,-25.0,197.0,23.0,-1012.0,-373.0,-149.0,1521.0
-327.0,-60.0,280.0,87.0,-673.0,-423.0,-141.0,1541.0
318.0,-19.0,219.0,-54.0,-160.0,-335.0,-107.0,1598.0
961.0,-16.0,70.0,-106.0,479.0,-387.0,-136.0,1638.0
1254.0,-52.0,-18.0,-85.0,1204.0,-326.0,-147.0,1638.0
1084.0,-99.0,-53.0,-146.0,1800.0,-342.0,-134.0,1450.0
635.0,-125.0,-13.0,-74.0,2160.0,-445.0,-179.0,1207.0
285.0,-89.0,-57.0,-67.0,2124.0,-485.0,-163.0,1026.0
-350.0,-63.0,-106.0,-56.0,1930.0,-485.0,-157.0,843.0
-396.0,-46.0,-40.0,-13.0,1521.0,-448.0,-135.0,629.0
603.0,-3.0,-18.0,-20.0,737.0,-459.0,-98.0,393.0
1189.0,43.0,-32.0,-5.0,-484.0,-472.0,-86.0,170.0
1319.0,46.0,-69.0,-64.0,-1398.0,-468.0,-159.0,-6.0
870.0,56.0,-39.0,-68.0,-1898.0,-440.0,-189.0,-93.0
-404.0,63.0,63.0,-24.0,-2277.0,-385.0,-151.0,-224.0
-1365.0,27.0,85.0,-2.0,-2389.0,-344.0,-167.0,-467.0
-1915.0,-100.0,110.0,30.0,-2252.0,-219.0,-117.0,-692.0
-2191.0,-244.0,101.0,33.0,-1272.0,-36.0,-154.0,-908.0
-1010.0,-158.0,158.0,42.0,920.0,271.0,-156.0,-1107.0
574.0,5.0,207.0,34.0,2124.0,271.0,-159.0,-1191.0
1189.0,-20.0,107.0,4.0,1547.0,-98.0,-175.0,-1241.0
986.0,-73.0,-5.0,-90.0,859.0,-228.0,-161.0,-1206.0
574.0,-20.0,10.0,-154.0,242.0,-226.0,-163.0,-1143.0
249.0,36.0,-33.0,-153.0,-877.0,-91.0,-108.0,-985.0
-428.0,34.0,-230.0,-129.0,-2316.0,74.0,-90.0,-692.0
171.0,71.0,-160.0,-74.0,-3119.0,61.0,-66.0,-356.0
1102.0,60.0,-15.0,-38.0,-4000.0,40.0,-37.0,146.0
1559.0,60.0,2.0,45.0,-4000.0,78.0,-1.0,745.0
1677.0,121.0,-67.0,73.0,-4000.0,114.0,25.0,1346.0
1124.0,83.0,-219.0,46.0,-4000.0,123.0,29.0,1924.0
303.0,74.0,-358.0,81.0,-3107.0,115.0,73.0,2433.0
-647.0,90.0,-511.0,84.0,-1963.0,162.0,61.0,2872.0
-880.0,160.0,-505.0,84.0,-446.0,347.0,79.0,3209.0
-1131.0,146.0,-734.0,84.0,1148.0,419.0,79.0,3487.0
-1978.0,33.0,-963.0,46.0,1865.0,404.0,51.0,3716.0
-3294.0,-25.0,-1321.0,50.0,1694.0,490.0,81.0,3781.0
-3786.0,-57.0,-2039.0,18.0,1329.0,469.0,62.0,3788.0
-3475.0,-28.0,-1655.0,-18.0,1669.0,268.0,64.0,3727.0
-2149.0,-47.0,-454.0,12.0,1722.0,-1.0,51.0,3586.0
460.0,-59.0,1571.0,10.0,1539.0,-257.0,24.0,3393.0
2028.0,-79.0,3072.0,6.0,1378.0,-306.0,27.0,3209.0
3302.0,-86.0,3267.0,7.0,1352.0,-63.0,43.0,2948.0
3761.0,-34.0,3186.0,45.0,1204.0,-48.0,47.0,2640.0
2536.0,-7.0,2324.0,61.0,667.0,-182.0,71.0,2314.0
1596.0,-4.0,1444.0,39.0,395.0,-297.0,66.0,2029.0
1420.0,23.0,476.0,64.0,537.0,-373.0,25.0,1727.0
1637.0,114.0,-403.0,44.0,941.0,-327.0,-40.0,1338.0
2328.0,144.0,-821.0,69.0,1279.0,-333.0,-71.0,1012.0
2067.0,58.0,-841.0,116.0,1279.0,-371.0,-42.0,686.0
1130.0,-37.0,-1036.0,88.0,1120.0,-537.0,-47.0,367.0
538.0,8.0,-1192.0,101.0,1279.0,-511.0,-47.0,74.0
-286.0,125.0,-971.0,85.0,1601.0,-362.0,-72.0,-218.0
-1156.0,47.0,-906.0,90.0,1865.0,-411.0,-58.0,-467.0
-2725.0,-59.0,-641.0,102.0,2019.0,-555.0,-60.0,-685.0
-3360.0,-7.0,-617.0,36.0,2095.0,-529.0,-113.0,-856.0
-2154.0,79.0,-580.0,-1.0,1775.0,-570.0,-101.0,-1013.0
-1547.0,144.0,-576.0,-40.0,1193.0,-900.0,-85.0,-1180.0
-1324.0,125.0,-628.0,-80.0,1071.0,-1038.0,-47.0,-1325.0
-957.0,22.0,-559.0,-103.0,1118.0,-1118.0,-36.0,-1404.0
-850.0,5.0,-381.0,-121.0,1474.0,-1127.0,-35.0,-1497.0
-673.0,33.0,-297.0,-122.0,2425.0,-926.0,-44.0,-1579.0
-669.0,50.0,-263.0,-127.0,4000.0,-737.0,-73.0,-1534.0
-549.0,53.0,-340.0,-109.0,4000.0,-613.0,-46.0,-1404.0
281.0,12.0,-1193.0,-81.0,4000.0,-586.0,-30.0,-1298.0
768.0,25.0,-1878.0,-75.0,4000.0,-920.0,-16.0,-1206.0
1051.0,2.0,-2045.0,-96.0,4000.0,-836.0,4.0,-1143.0
1246.0,7.0,-1823.0,-93.0,4000.0,-489.0,40.0,-1078.0
929.0,19.0,-128.0,-44.0,4000.0,-550.0,40.0,-993.0
719.0,-22.0,1375.0,-28.0,4000.0,-240.0,4.0,-932.0
660.0,-13.0,2054.0,-15.0,4000.0,-398.0,-10.0,-881.0
935.0,20.0,2421.0,-16.0,4000.0,-638.0,5.0,-781.0
668.0,39.0,1900.0,-40.0,4000.0,-532.0,-16.0,-683.0
473.0,21.0,1282.0,-50.0,4000.0,-416.0,9.0,-529.0
260.0,57.0,152.0,-18.0,4000.0,65.0,50.0,-360.0
-518.0,139.0,-1073.0,-13.0,4000.0,104.0,58.0,-189.0
-2216.0,155.0,-1427.0,-12.0,4000.0,-101.0,206.0,3.0
-4000.0,133.0,-912.0,34.0,3916.0,-86.0,349.0,170.0
-4000.0,102.0,-211.0,9.0,2947.0,243.0,349.0,296.0
-4000.0,38.0,653.0,-32.0,2516.0,701.0,294.0,396.0
-2142.0,-95.0,439.0,-44.0,2419.0,506.0,156.0,426.0
2158.0,-241.0,-288.0,-7.0,2255.0,76.0,36.0,409.0
4000.0,-225.0,-954.0,8.0,1995.0,91.0,-29.0,327.0
4000.0,-144.0,-2513.0,-44.0,1692.0,368.0,-313.0,236.0
4000.0,-150.0,-2560.0,-18.0,1474.0,613.0,-385.0,164.0
4000.0,-118.0,150.0,6.0,1263.0,858.0,-204.0,66.0
-219.0,-118.0,3007.0,26.0,961.0,1214.0,-117.0,-51.0
-4000.0,-147.0,4000.0,49.0,606.0,1456.0,-2.0,-159.0
-4000.0,-106.0,4000.0,47.0,306.0,1482.0,-30.0,-293.0
-4000.0,-30.0,2600.0,15.0,235.0,1468.0,-32.0,-456.0
169.0,41.0,-1476.0,-35.0,-168.0,1417.0,-12.0,-588.0
3755.0,168.0,-2871.0,-23.0,-840.0,1388.0,55.0,-738.0
4000.0,288.0,-3015.0,14.0,-1432.0,1398.0,94.0,-918.0
4000.0,311.0,-2721.0,-20.0,-1636.0,1409.0,95.0,-1070.0
1869.0,304.0,-867.0,-9.0,-1489.0,1397.0,181.0,-1298.0
0.0,217.0,1184.0,18.0,-1945.0,1340.0,132.0,-1534.0
-292.0,144.0,1574.0,13.0,-3262.0,1227.0,111.0,-1762.0
538.0,80.0,-1911.0,-7.0,-4000.0,1140.0,71.0,-1957.0
-258.0,34.0,-3018.0,-79.0,-4000.0,1033.0,46.0,-2088.0
-541.0,75.0,-1199.0,-149.0,-4000.0,1009.0,71.0,-2176.0
-599.0,112.0,-876.0,-173.0,-4000.0,1033.0,48.0,-2165.0
-2570.0,89.0,1497.0,-123.0,-4000.0,1018.0,34.0,-2124.0
-4000.0,71.0,2412.0,-127.0,-4000.0,1083.0,47.0,-2049.0
-3571.0,103.0,1282.0,-194.0,-4000.0,1050.0,66.0,-1839.0
-214.0,162.0,410.0,-253.0,-4000.0,811.0,61.0,-1626.0
648.0,143.0,1436.0,-162.0,-4000.0,557.0,79.0,-1384.0
-300.0,-26.0,1257.0,-2.0,-3586.0,412.0,70.0,-1115.0
-2786.0,-182.0,-2281.0,-8.0,-3917.0,283.0,47.0,-870.0
-1131.0,-281.0,-3671.0,-71.0,-4000.0,170.0,25.0,-659.0
1832.0,-302.0,-4000.0,-113.0,-4000.0,166.0,53.0,-543.0
2223.0,-171.0,-4000.0,-87.0,-3752.0,126.0,51.0,-477.0
3443.0,-73.0,1003.0,39.0,-2870.0,62.0,27.0,-443.0
3647.0,-106.0,4000.0,59.0,-2116.0,-66.0,53.0,-440.0
2222.0,-147.0,4000.0,-29.0,-1853.0,-325.0,44.0,-467.0
-2387.0,-224.0,4000.0,23.0,-1654.0,-450.0,71.0,-488.0
-4000.0,-271.0,4000.0,96.0,-1137.0,-482.0,66.0,-549.0
-4000.0,-247.0,4000.0,129.0,-860.0,-423.0,79.0,-679.0
-2875.0,-141.0,4000.0,297.0,-584.0,-441.0,86.0,-789.0
2028.0,11.0,3952.0,246.0,-356.0,-507.0,30.0,-918.0
4000.0,55.0,2913.0,84.0,-107.0,-440.0,38.0,-1070.0
4000.0,26.0,136.0,142.0,157.0,-468.0,10.0,-1148.0
4000.0,21.0,-3030.0,217.0,399.0,-448.0,-33.0,-1188.0
3739.0,70.0,-4000.0,195.0,468.0,-375.0,-39.0,-1170.0
1038.0,164.0,-4000.0,120.0,1032.0,-423.0,8.0,-1148.0
-957.0,313.0,-4000.0,81.0,1266.0,-485.0,31.0,-1135.0
-2154.0,319.0,-4000.0,98.0,570.0,-537.0,8.0,-1126.0
-4000.0,268.0,4000.0,40.0,425.0,-517.0,14.0,-1129.0
-4000.0,248.0,4000.0,-83.0,-418.0,-419.0,9.0,-1070.0
-4000.0,256.0,4000.0,-179.0,-2578.0,-334.0,-8.0,-993.0
-4000.0,194.0,4000.0,-232.0,-4000.0,-133.0,-22.0,-883.0
-4000.0,81.0,4000.0,-250.0,-3969.0,81.0,-33.0,-773.0
-4000.0,-57.0,4000.0,-381.0,-2925.0,441.0,-7.0,-627.0
-1045.0,-188.0,2395.0,-328.0,-803.0,522.0,4.0,-456.0
3884.0,-206.0,9.0,-124.0,699.0,276.0,-17.0,-262.0
4000.0,-310.0,-1282.0,15.0,-41.0,129.0,-24.0,-112.0
4000.0,-402.0,-4000.0,134.0,-912.0,-107.0,-29.0,-60.0
4000.0,-427.0,-4000.0,220.0,-1805.0,-74.0,10.0,-6.0
4000.0,-310.0,-4000.0,337.0,-2247.0,-145.0,8.0,19.0
4000.0,-161.0,-4000.0,248.0,-1055.0,-106.0,-13.0,-90.0
1832.0,-118.0,-4000.0,40.0,522.0,85.0,4.0,-275.0
1832.0,-12.0,-2383.0,-109.0,171.0,155.0,29.0,-401.0
1450.0,48.0,4000.0,-206.0,-291.0,243.0,75.0,-562.0
-1283.0,62.0,4000.0,-253.0,220.0,-88.0,124.0,-758.0
-909.0,83.0,4000.0,-379.0,125.0,-173.0,154.0,-936.0
-1996.0,80.0,4000.0,-453.0,78.0,-178.0,235.0,-1058.0
-3465.0,112.0,4000.0,-462.0,138.0,-146.0,290.0,-1070.0
-4000.0,186.0,1692.0,-356.0,193.0,49.0,211.0,-1050.0
-4000.0,176.0,-4000.0,-137.0,177.0,103.0,120.0,-931.0
-4000.0,31.0,-3730.0,15.0,202.0,119.0,-35.0,-771.0
-4000.0,-139.0,-4000.0,77.0,301.0,-15.0,-227.0,-540.0
3432.0,-214.0,-4000.0,51.0,361.0,19.0,-294.0,-189.0
4000.0,-179.0,-4000.0,93.0,444.0,-26.0,-363.0,247.0
4000.0,-142.0,-4000.0,220.0,553.0,-80.0,-412.0,725.0
1677.0,-137.0,-4000.0,316.0,651.0,-41.0,-224.0,1156.0
-4000.0,-14.0,-4000.0,322.0,725.0,-130.0,39.0,1728.0
-4000.0,170.0,-4000.0,207.0,811.0,-157.0,132.0,2367.0
-4000.0,298.0,-4000.0,77.0,771.0,-227.0,311.0,2948.0
3039.0,334.0,3510.0,-48.0,790.0,-247.0,161.0,3395.0
4000.0,321.0,3251.0,-103.0,896.0,-107.0,-263.0,3617.0
4000.0,355.0,4000.0,-136.0,1332.0,-57.0,-214.0,3831.0
4000.0,457.0,4000.0,-104.0,1340.0,-4.0,-46.0,4000.0
4000.0,508.0,4000.0,4.0,480.0,45.0,148.0,4000.0
1280.0,372.0,4000.0,45.0,-103.0,-56.0,400.0,4000.0
-4000.0,93.0,4000.0,56.0,-388.0,-76.0,439.0,4000.0
-4000.0,-127.0,4000.0,18.0,-1306.0,-63.0,576.0,4000.0
-4000.0,-223.0,2538.0,60.0,-1638.0,-8.0,1004.0,4000.0
-4000.0,-267.0,-1980.0,84.0,-928.0,119.0,1206.0,4000.0
-4000.0,-300.0,-4000.0,-29.0,-52.0,154.0,622.0,4000.0
-1365.0,-287.0,-4000.0,-33.0,106.0,70.0,-382.0,4000.0
4000.0,-314.0,1159.0,67.0,-1312.0,-6.0,-745.0,4000.0
4000.0,-365.0,4000.0,113.0,-1424.0,18.0,-1383.0,4000.0
4000.0,-383.0,4000.0,56.0,-1267.0,42.0,-2223.0,4000.0
4000.0,-391.0,4000.0,-84.0,-2145.0,8.0,-2186.0,3654.0
4000.0,-289.0,-415.0,-238.0,-1674.0,28.0,-1262.0,3326.0
4000.0,-94.0,-2770.0,-263.0,-1381.0,23.0,723.0,3002.0
1246.0,-33.0,-4000.0,-316.0,-1795.0,71.0,1776.0,2705.0
214.0,-81.0,-3933.0,-279.0,-2735.0,189.0,1770.0,2498.0
-382.0,3.0,-2319.0,-177.0,-2465.0,203.0,1734.0,2237.0
-2096.0,144.0,-2241.0,-99.0,-717.0,225.0,1274.0,1912.0
-4000.0,354.0,-2916.0,12.0,-87.0,168.0,352.0,1468.0
-4000.0,477.0,-4000.0,-9.0,-404.0,101.0,-411.0,935.0
-4000.0,582.0,-4000.0,-38.0,-738.0,79.0,-375.0,269.0
-3111.0,621.0,-4000.0,65.0,-1077.0,49.0,-530.0,-482.0
-1466.0,359.0,-4000.0,122.0,-898.0,5.0,-994.0,-1104.0
-4000.0,46.0,-4000.0,67.0,-584.0,-50.0,-1006.0,-1632.0
-4000.0,-101.0,-4000.0,140.0,-795.0,-65.0,-38.0,-2071.0
-4000.0,-240.0,-3946.0,264.0,-818.0,-88.0,1019.0,-2375.0
-589.0,-360.0,4000.0,329.0,-942.0,-140.0,1223.0,-2456.0
4000.0,-345.0,4000.0,341.0,-1052.0,-145.0,637.0,-2376.0
4000.0,-318.0,4000.0,178.0,-1007.0,-155.0,-83.0,-2293.0
4000.0,-230.0,4000.0,87.0,-604.0,-208.0,196.0,-2166.0
4000.0,-137.0,4000.0,129.0,415.0,-234.0,283.0,-2071.0
4000.0,-96.0,4000.0,182.0,888.0,-280.0,352.0,-2034.0
-366.0,-121.0,4000.0,187.0,1136.0,-220.0,368.0,-2062.0
-4000.0,-85.0,1835.0,26.0,1213.0,-174.0,-221.0,-2256.0
-4000.0,43.0,-1282.0,-65.0,379.0,-177.0,-241.0,-2584.0
-4000.0,83.0,-996.0,-267.0,-770.0,-127.0,-308.0,-3057.0
-4000.0,233.0,-2770.0,-325.0,-1717.0,-89.0,-255.0,-3397.0
-4000.0,485.0,-4000.0,-25.0,-1685.0,-116.0,91.0,-3527.0
4000.0,321.0,-4000.0,-102.0,-1188.0,-244.0,158.0,-3527.0
4000.0,84.0,-4000.0,-232.0,282.0,-314.0,225.0,-3527.0
4000.0,-98.0,-4000.0,-255.0,2568.0,-274.0,-90.0,-3694.0
4000.0,-330.0,-4000.0,-301.0,4000.0,-234.0,-17.0,-3988.0
4000.0,-383.0,-1914.0,-271.0,3657.0,-188.0,441.0,-4000.0
4000.0,-345.0,-1101.0,-232.0,1775.0,-142.0,164.0,-4000.0
538.0,-147.0,772.0,-194.0,823.0,-131.0,163.0,-4000.0
-2708.0,-56.0,231.0,-213.0,-2159.0,-69.0,548.0,-4000.0
-4000.0,65.0,891.0,-189.0,-3262.0,-112.0,19.0,-4000.0
-4000.0,91.0,1350.0,-145.0,-29.0,-198.0,-1058.0,-4000.0
-1560.0,176.0,-557.0,-21.0,4000.0,-161.0,-1755.0,-4000.0
-2402.0,384.0,-4000.0,78.0,4000.0,-22.0,-1178.0,-4000.0
-4000.0,371.0,-4000.0,194.0,4000.0,81.0,-680.0,-4000.0
-4000.0,321.0,-2542.0,252.0,4000.0,37.0,-1319.0,-4000.0
-4000.0,208.0,2651.0,105.0,4000.0,-124.0,-1173.0,-4000.0
-3411.0,-79.0,4000.0,0.0,4000.0,-204.0,-114.0,-4000.0
-1075.0,-281.0,4000.0,-46.0,4000.0,-192.0,687.0,-4000.0
2014.0,-255.0,4000.0,-63.0,4000.0,-222.0,524.0,-4000.0
4000.0,-282.0,-1081.0,-155.0,4000.0,-202.0,421.0,-4000.0
3674.0,-328.0,-2899.0,-143.0,4000.0,-200.0,962.0,-4000.0
-457.0,-271.0,-1427.0,-49.0,4000.0,-163.0,1801.0,-4000.0
-2515.0,-89.0,-4000.0,-20.0,3269.0,-104.0,2061.0,-3753.0
155.0,163.0,-4000.0,96.0,2955.0,-35.0,1135.0,-3138.0
-448.0,313.0,-4000.0,91.0,2307.0,20.0,622.0,-2450.0
-4000.0,200.0,-4000.0,-1.0,1971.0,118.0,391.0,-1659.0
-4000.0,52.0,2483.0,-56.0,1462.0,237.0,203.0,-862.0
-1921.0,-176.0,4000.0,-80.0,440.0,213.0,74.0,-101.0
2614.0,-292.0,4000.0,-72.0,-1056.0,217.0,-281.0,601.0
3871.0,-379.0,4000.0,4.0,-2147.0,210.0,-573.0,1346.0
2793.0,-383.0,4000.0,113.0,-2806.0,185.0,-717.0,2118.0
725.0,-40.0,4000.0,234.0,-3327.0,246.0,-94.0,2835.0
1671.0,335.0,571.0,264.0,-3380.0,237.0,832.0,3462.0
-361.0,811.0,-1881.0,158.0,-3197.0,281.0,1164.0,3806.0
-4000.0,1032.0,-1214.0,175.0,-3327.0,321.0,758.0,4000.0
-4000.0,802.0,-572.0,272.0,-3835.0,332.0,271.0,4000.0
-4000.0,465.0,-1881.0,341.0,-3508.0,276.0,-163.0,4000.0
-1410.0,125.0,-4000.0,402.0,-3628.0,156.0,-912.0,4000.0
-4000.0,-57.0,-4000.0,603.0,-4000.0,90.0,-1671.0,4000.0
-2702.0,-35.0,-2960.0,687.0,-4000.0,64.0,-1583.0,4000.0
4000.0,-83.0,-1557.0,387.0,-4000.0,194.0,-837.0,4000.0
4000.0,-224.0,-1823.0,41.0,-4000.0,307.0,-680.0,4000.0
4000.0,-318.0,-3550.0,-217.0,-4000.0,311.0,-493.0,4000.0
4000.0,-318.0,-3083.0,-296.0,-4000.0,183.0,-18.0,4000.0
4000.0,-419.0,313.0,-246.0,-4000.0,148.0,61.0,4000.0
4000.0,-531.0,-1563.0,-143.0,-4000.0,237.0,213.0,4000.0
-1022.0,-440.0,-4000.0,-178.0,-4000.0,217.0,667.0,4000.0
-3915.0,-358.0,-906.0,-372.0,-3963.0,160.0,537.0,3784.0
-3760.0,-255.0,2795.0,-409.0,-2912.0,118.0,213.0,3469.0
-306.0,-229.0,51.0,-376.0,-3539.0,127.0,23.0,3198.0
847.0,-120.0,-4000.0,-301.0,-4000.0,93.0,-267.0,2948.0
1104.0,64.0,-2168.0,-260.0,-4000.0,80.0,-420.0,2807.0
-757.0,287.0,3847.0,-261.0,-4000.0,104.0,-527.0,2640.0
-3099.0,460.0,4000.0,-170.0,-4000.0,42.0,25.0,2354.0
-4000.0,384.0,4000.0,-11.0,-4000.0,19.0,348.0,2118.0
-4000.0,316.0,4000.0,99.0,-4000.0,30.0,42.0,2054.0
-4000.0,260.0,2525.0,116.0,-4000.0,32.0,-151.0,1963.0
-4000.0,334.0,1127.0,106.0,-2122.0,107.0,-36.0,2029.0
-4000.0,420.0,-885.0,30.0,-229.0,105.0,494.0,1898.0
-2643.0,440.0,62.0,-26.0,440.0,81.0,637.0,1568.0
-1686.0,279.0,-169.0,-11.0,218.0,105.0,445.0,1728.0
-1342.0,-5.0,-1878.0,91.0,-353.0,70.0,283.0,1960.0
-555.0,-170.0,-3111.0,128.0,-612.0,-35.0,176.0,1975.0
-195.0,-328.0,-2627.0,90.0,-490.0,-161.0,220.0,1964.0
36.0,-310.0,-1655.0,106.0,50.0,-125.0,250.0,1892.0
460.0,-353.0,-1473.0,55.0,888.0,-91.0,250.0,1456.0
492.0,-365.0,-737.0,-14.0,1842.0,-108.0,227.0,678.0
635.0,-261.0,-580.0,-71.0,2813.0,-112.0,163.0,293.0
521.0,-181.0,100.0,-127.0,3744.0,-143.0,-8.0,94.0
603.0,-107.0,671.0,-139.0,4000.0,-130.0,-176.0,651.0
505.0,-38.0,2030.0,-178.0,4000.0,-101.0,-340.0,1977.0
465.0,33.0,2421.0,-159.0,4000.0,-195.0,-351.0,3209.0
429.0,2.0,663.0,-84.0,4000.0,-394.0,-284.0,4000.0
424.0,60.0,-612.0,-87.0,4000.0,-456.0,-340.0,4000.0
412.0,140.0,-1353.0,-84.0,4000.0,-336.0,-459.0,4000.0
334.0,163.0,-1292.0,-44.0,4000.0,-182.0,-570.0,4000.0
318.0,73.0,-1101.0,-15.0,4000.0,0.0,-424.0,3910.0
119.0,-75.0,-798.0,31.0,4000.0,53.0,-44.0,4000.0
125.0,-48.0,-628.0,41.0,4000.0,81.0,179.0,4000.0
232.0,28.0,-892.0,93.0,4000.0,289.0,147.0,2819.0
177.0,-53.0,-1041.0,106.0,4000.0,162.0,268.0,1963.0
97.0,-108.0,-1137.0,45.0,4000.0,-54.0,336.0,1568.0
151.0,-55.0,-794.0,9.0,4000.0,204.0,217.0,629.0
105.0,-33.0,-606.0,28.0,4000.0,289.0,230.0,788.0
-23.0,-7.0,-154.0,99.0,4000.0,25.0,248.0,1468.0
-143.0,44.0,259.0,116.0,4000.0,-419.0,99.0,-87.0
-148.0,92.0,263.0,88.0,4000.0,-211.0,-51.0,-151.0
-75.0,157.0,415.0,42.0,3623.0,59.0,-78.0,881.0
-100.0,240.0,425.0,42.0,3074.0,-323.0,-91.0,1142.0
-83.0,217.0,533.0,-22.0,2374.0,-240.0,-29.0,1924.0
-109.0,146.0,541.0,-172.0,1645.0,-423.0,65.0,320.0
6.0,99.0,606.0,-284.0,947.0,-555.0,86.0,-1130.0
83.0,-31.0,695.0,-371.0,432.0,-275.0,7.0,-146.0
-85.0,-239.0,501.0,-380.0,167.0,45.0,-17.0,660.0
-190.0,-310.0,215.0,-393.0,-109.0,276.0,50.0,853.0
-213.0,-114.0,17.0,-336.0,-395.0,455.0,-16.0,804.0
-215.0,128.0,83.0,-231.0,-681.0,858.0,-41.0,1403.0
-131.0,273.0,207.0,-72.0,-797.0,586.0,-90.0,2351.0
17.0,298.0,301.0,56.0,-824.0,498.0,-251.0,1963.0
122.0,412.0,246.0,37.0,-788.0,636.0,-363.0,-456.0
110.0,406.0,172.0,103.0,-698.0,541.0,-266.0,-4000.0
64.0,40.0,136.0,182.0,-921.0,602.0,-75.0,-4000.0
104.0,-127.0,150.0,268.0,-1312.0,554.0,179.0,-4000.0
170.0,-356.0,47.0,301.0,-1674.0,235.0,384.0,-4000.0
233.0,-552.0,-135.0,329.0,-1805.0,-279.0,276.0,-4000.0
137.0,-633.0,-153.0,459.0,-1795.0,-352.0,2.0,-4000.0
20.0,-677.0,-206.0,435.0,-1750.0,-346.0,-50.0,-4000.0
143.0,-575.0,-241.0,292.0,-1729.0,-399.0,197.0,-4000.0
269.0,-549.0,-311.0,113.0,-1854.0,-485.0,199.0,-4000.0
530.0,-505.0,-157.0,-81.0,-1963.0,-327.0,167.0,163.0
863.0,-487.0,47.0,-359.0,-2095.0,-448.0,281.0,1445.0
760.0,-469.0,49.0,-625.0,-2316.0,-521.0,325.0,1651.0
615.0,-176.0,85.0,-423.0,-2483.0,-258.0,235.0,-650.0
538.0,282.0,107.0,137.0,-2627.0,-816.0,135.0,-20.0
195.0,542.0,128.0,238.0,-2794.0,-881.0,203.0,108.0
-69.0,556.0,169.0,-50.0,-2800.0,-472.0,197.0,-1515.0
-379.0,681.0,219.0,164.0,-2753.0,-630.0,138.0,-809.0
-498.0,758.0,252.0,156.0,-2741.0,-971.0,-6.0,-2153.0
-518.0,770.0,217.0,-131.0,-2676.0,-810.0,-139.0,-4000.0
-545.0,1051.0,309.0,-84.0,-2484.0,-391.0,-122.0,-4000.0
-599.0,1042.0,1133.0,-191.0,-2341.0,36.0,42.0,-4000.0
-719.0,672.0,1348.0,-169.0,-2224.0,311.0,181.0,-4000.0
-223.0,117.0,-120.0,-239.0,-2160.0,248.0,229.0,-4000.0
716.0,-495.0,-585.0,-446.0,-2224.0,63.0,225.0,-3414.0
790.0,-700.0,-369.0,142.0,-2140.0,-450.0,151.0,-750.0
-1.0,-541.0,-368.0,1125.0,-2044.0,-55.0,-36.0,666.0
-127.0,-663.0,-159.0,988.0,-1953.0,228.0,-290.0,3340.0
60.0,-787.0,-383.0,458.0,-1756.0,-123.0,-440.0,3079.0
265.0,7.0,-212.0,134.0,-1638.0,-152.0,-340.0,1502.0
74.0,737.0,-336.0,-568.0,-1674.0,-678.0,-74.0,613.0
-327.0,811.0,-696.0,-654.0,-1514.0,49.0,-86.0,172.0
-96.0,583.0,-466.0,-518.0,-1194.0,1051.0,168.0,1521.0
-150.0,263.0,-51.0,-659.0,-968.0,557.0,576.0,1384.0
-1560.0,-155.0,128.0,-901.0,-751.0,837.0,296.0,961.0
-2011.0,-47.0,-52.0,-741.0,-402.0,1344.0,56.0,1063.0
-654.0,1227.0,-43.0,65.0,-321.0,1148.0,-75.0,1150.0
-566.0,2673.0,56.0,-612.0,-712.0,1136.0,-172.0,825.0
174.0,2673.0,79.0,-2118.0,-1064.0,636.0,-71.0,434.0
701.0,836.0,37.0,-3222.0,-1398.0,25.0,-94.0,733.0
608.0,-1867.0,-41.0,-3050.0,-1685.0,641.0,-151.0,564.0
825.0,-3743.0,-108.0,-1015.0,-2092.0,1092.0,-257.0,642.0
651.0,-3717.0,-110.0,819.0,-2611.0,1018.0,-100.0,1323.0
1346.0,-3472.0,49.0,2252.0,-3051.0,613.0,23.0,357.0
2132.0,-2745.0,85.0,2319.0,-3661.0,-247.0,-130.0,-2783.0
2028.0,-1590.0,175.0,1867.0,-4000.0,-579.0,-146.0,-4000.0
929.0,-614.0,311.0,337.0,-4000.0,-672.0,54.0,-4000.0
227.0,335.0,360.0,-978.0,-4000.0,-945.0,205.0,-3841.0
-409.0,868.0,384.0,290.0,-4000.0,-1096.0,243.0,-3308.0
-566.0,1063.0,284.0,1631.0,-4000.0,-1097.0,329.0,-2395.0
-664.0,1319.0,168.0,3111.0,-3929.0,-1177.0,420.0,-517.0
-909.0,2738.0,56.0,2657.0,-2484.0,-1162.0,390.0,-1143.0
-1096.0,2222.0,-112.0,1684.0,-837.0,-1233.0,299.0,-301.0
-1856.0,-130.0,-121.0,2608.0,1539.0,-1135.0,254.0,-492.0
-2172.0,-869.0,5.0,2787.0,4000.0,-988.0,204.0,-1018.0
-1602.0,-688.0,-5.0,1786.0,4000.0,-940.0,367.0,-653.0
1026.0,-169.0,-70.0,402.0,4000.0,-867.0,368.0,-883.0
3851.0,-163.0,-186.0,-979.0,4000.0,-1118.0,-63.0,-557.0
3314.0,-278.0,-206.0,-1952.0,4000.0,-1509.0,-420.0,-604.0
1083.0,-101.0,-320.0,-2843.0,1380.0,-1847.0,-391.0,-286.0
1307.0,210.0,-480.0,-4000.0,-2537.0,-1876.0,83.0,-236.0
1791.0,607.0,-367.0,-4000.0,-4000.0,-1532.0,283.0,-209.0
1596.0,229.0,-383.0,-4000.0,-4000.0,-965.0,97.0,-97.0
970.0,-358.0,-400.0,-4000.0,-4000.0,-838.0,-7.0,27.0
-2611.0,-304.0,-344.0,-2664.0,-2212.0,-761.0,-207.0,195.0
-4000.0,135.0,-167.0,305.0,-797.0,-378.0,-255.0,344.0
-4000.0,374.0,-20.0,1866.0,531.0,-348.0,-244.0,851.0
-4000.0,400.0,-111.0,3308.0,2243.0,-446.0,-273.0,1623.0
-3661.0,494.0,-37.0,3426.0,4000.0,-641.0,-216.0,2437.0
-1815.0,681.0,199.0,3046.0,4000.0,-615.0,-124.0,3002.0
200.0,713.0,230.0,2390.0,4000.0,-481.0,-73.0,3658.0
777.0,769.0,85.0,1827.0,4000.0,-448.0,-247.0,4000.0
760.0,803.0,-8.0,2139.0,4000.0,-273.0,-290.0,4000.0
994.0,550.0,-198.0,3361.0,4000.0,-167.0,-262.0,4000.0
1559.0,190.0,-405.0,4000.0,4000.0,-74.0,-355.0,4000.0
1347.0,2.0,-463.0,3519.0,4000.0,233.0,-382.0,4000.0
1026.0,248.0,-299.0,2787.0,4000.0,528.0,-372.0,4000.0
1051.0,607.0,-206.0,2387.0,4000.0,660.0,-268.0,4000.0
863.0,550.0,-302.0,1804.0,4000.0,673.0,-200.0,4000.0
929.0,556.0,-312.0,988.0,4000.0,602.0,-241.0,4000.0
782.0,1583.0,-309.0,-62.0,4000.0,791.0,-332.0,4000.0
929.0,2673.0,-101.0,-1860.0,4000.0,1204.0,-482.0,3796.0
920.0,2556.0,59.0,-3292.0,961.0,1409.0,-298.0,3291.0
870.0,2233.0,207.0,-4000.0,-3312.0,1626.0,-109.0,2754.0
907.0,2491.0,533.0,-3697.0,-4000.0,1798.0,61.0,2310.0
825.0,1636.0,988.0,-3091.0,-3368.0,1842.0,248.0,2350.0
725.0,-1252.0,1704.0,-2197.0,747.0,1917.0,214.0,2507.0
456.0,-4000.0,1822.0,-1166.0,4000.0,2060.0,254.0,2640.0
422.0,-4000.0,858.0,-1709.0,4000.0,2243.0,262.0,2754.0
316.0,-4000.0,-222.0,-1955.0,4000.0,2382.0,401.0,2901.0
187.0,-3537.0,-938.0,-5.0,4000.0,2512.0,426.0,2705.0
227.0,-3188.0,-955.0,1696.0,4000.0,2515.0,472.0,1482.0
234.0,-2839.0,-596.0,3111.0,-1129.0,2515.0,587.0,-323.0
195.0,-2745.0,-447.0,3621.0,-4000.0,2485.0,441.0,-1520.0
228.0,-2773.0,-270.0,2344.0,-4000.0,2363.0,368.0,-1921.0
176.0,-2501.0,-167.0,1814.0,-4000.0,2255.0,266.0,-2676.0
82.0,-1749.0,-17.0,-133.0,-4000.0,2224.0,221.0,-2567.0
-16.0,-556.0,83.0,-875.0,-4000.0,2124.0,168.0,-2360.0
-274.0,-102.0,125.0,-265.0,-4000.0,2034.0,218.0,-3773.0
-523.0,20.0,288.0,-2354.0,-4000.0,1982.0,321.0,-4000.0
-457.0,530.0,195.0,-2897.0,-4000.0,1929.0,400.0,-4000.0
-174.0,2036.0,-141.0,-1310.0,-4000.0,1795.0,551.0,-3976.0
-50.0,3766.0,-291.0,1284.0,-4000.0,1669.0,613.0,1437.0
35.0,4000.0,-61.0,4000.0,-4000.0,1721.0,673.0,3014.0
32.0,4000.0,150.0,3361.0,-4000.0,1734.0,677.0,3014.0
-24.0,4000.0,207.0,524.0,-4000.0,1666.0,628.0,3291.0
-116.0,4000.0,183.0,-1637.0,-4000.0,1454.0,416.0,3654.0
-215.0,2138.0,195.0,-4000.0,-4000.0,1214.0,236.0,3976.0
-172.0,-417.0,238.0,-3791.0,-4000.0,929.0,171.0,4000.0
-181.0,-2627.0,85.0,-3299.0,-4000.0,732.0,9.0,4000.0
-317.0,-4000.0,-172.0,-4000.0,-4000.0,616.0,-258.0,3869.0
-237.0,-4000.0,-363.0,-4000.0,-4000.0,471.0,-646.0,3600.0
-107.0,-4000.0,-190.0,-4000.0,-4000.0,404.0,-811.0,3196.0
-122.0,-3851.0,6.0,-4000.0,-4000.0,274.0,-161.0,2807.0
-80.0,-2288.0,-98.0,-4000.0,-4000.0,113.0,246.0,2350.0
-118.0,26.0,-105.0,-1955.0,-4000.0,-35.0,197.0,1704.0
-284.0,2491.0,-144.0,229.0,-4000.0,-200.0,486.0,1026.0
-354.0,3854.0,-258.0,1184.0,-2859.0,-320.0,407.0,474.0
-214.0,4000.0,-137.0,1618.0,-1534.0,-468.0,348.0,24.0
-203.0,3535.0,-90.0,1405.0,553.0,-615.0,282.0,-378.0
-188.0,1766.0,-118.0,1757.0,2308.0,-781.0,93.0,-665.0
-193.0,-227.0,-63.0,3046.0,3595.0,-1005.0,181.0,-948.0
-176.0,-1916.0,-51.0,3584.0,4000.0,-1135.0,225.0,-1170.0
-78.0,-3136.0,59.0,3640.0,4000.0,-1140.0,81.0,-1404.0
-86.0,-3489.0,125.0,3389.0,4000.0,-1330.0,41.0,-1677.0
-46.0,-2822.0,172.0,2998.0,3916.0,-1532.0,89.0,-1904.0
-12.0,-2033.0,183.0,2592.0,423.0,-1647.0,42.0,-2114.0
187.0,-1126.0,85.0,2151.0,-4000.0,-1734.0,191.0,-2344.0
250.0,-663.0,16.0,1863.0,-4000.0,-1850.0,84.0,-2543.0
40.0,607.0,-5.0,1695.0,-4000.0,-2091.0,-133.0,-2747.0
-62.0,1526.0,75.0,1823.0,-4000.0,-2481.0,-152.0,-3001.0
24.0,1266.0,201.0,1879.0,-4000.0,-2974.0,-416.0,-3192.0
15.0,992.0,290.0,1607.0,-4000.0,-3453.0,-359.0,-3385.0
-113.0,1093.0,345.0,1302.0,-4000.0,-4000.0,-323.0,-3504.0
-163.0,1232.0,328.0,988.0,-4000.0,-4000.0,-459.0,-3667.0
-119.0,985.0,207.0,533.0,-4000.0,-4000.0,-469.0,-3862.0
-195.0,672.0,133.0,171.0,-4000.0,-4000.0,-699.0,-4000.0
-307.0,-114.0,-63.0,-263.0,-4000.0,-4000.0,-1141.0,-4000.0
-274.0,-1252.0,-350.0,-446.0,-3856.0,-4000.0,-1497.0,-4000.0
-317.0,-1601.0,-477.0,-507.0,4000.0,-4000.0,-1113.0,-4000.0
-256.0,-242.0,-450.0,-979.0,4000.0,-4000.0,-310.0,-4000.0
-274.0,646.0,-287.0,-1036.0,4000.0,-3724.0,74.0,-4000.0
-419.0,410.0,-89.0,-515.0,4000.0,-1799.0,103.0,-4000.0
-318.0,601.0,113.0,-140.0,4000.0,455.0,-90.0,-4000.0
-90.0,731.0,178.0,-56.0,4000.0,2877.0,-407.0,-3926.0
111.0,784.0,165.0,-100.0,4000.0,4000.0,-601.0,-3527.0
98.0,646.0,135.0,-185.0,4000.0,4000.0,-294.0,-3073.0
22.0,527.0,0.0,-239.0,4000.0,4000.0,274.0,-2698.0
150.0,614.0,-42.0,-255.0,4000.0,4000.0,376.0,-2319.0
199.0,621.0,-2.0,-214.0,4000.0,4000.0,283.0,-2063.0
220.0,598.0,88.0,-227.0,4000.0,4000.0,32.0,-2016.0
88.0,411.0,45.0,-243.0,4000.0,4000.0,-116.0,-2049.0
-15.0,233.0,-39.0,-263.0,4000.0,4000.0,208.0,-2035.0
163.0,263.0,-129.0,-285.0,4000.0,4000.0,167.0,-1078.0
263.0,187.0,-308.0,-293.0,4000.0,4000.0,134.0,-195.0
24.0,-12.0,-239.0,-251.0,4000.0,4000.0,13.0,49.0
-158.0,22.0,-23.0,-187.0,4000.0,1604.0,-175.0,535.0
-42.0,30.0,19.0,-155.0,4000.0,-1943.0,-133.0,678.0
59.0,73.0,40.0,-110.0,4000.0,-4000.0,-200.0,804.0
137.0,72.0,95.0,-109.0,4000.0,-4000.0,-77.0,816.0
203.0,125.0,93.0,-123.0,4000.0,-4000.0,-178.0,751.0
181.0,178.0,18.0,-311.0,4000.0,-4000.0,-473.0,739.0
-9.0,152.0,-96.0,-397.0,3215.0,-4000.0,-796.0,621.0
-227.0,199.0,-94.0,-291.0,615.0,-4000.0,-789.0,583.0
-195.0,105.0,-147.0,-442.0,-2470.0,-4000.0,-424.0,474.0
9.0,128.0,-182.0,-632.0,-4000.0,-4000.0,-378.0,462.0
-73.0,78.0,-45.0,-755.0,-4000.0,-4000.0,-652.0,373.0
-625.0,-160.0,85.0,-674.0,-4000.0,-4000.0,-639.0,357.0
-844.0,-427.0,36.0,-458.0,-4000.0,-1663.0,-190.0,296.0
-515.0,-578.0,-46.0,-179.0,-4000.0,1657.0,-207.0,187.0
-282.0,-495.0,-40.0,197.0,-4000.0,4000.0,38.0,213.0
54.0,-314.0,-105.0,144.0,-4000.0,4000.0,243.0,210.0
553.0,-99.0,-89.0,138.0,-4000.0,4000.0,-144.0,135.0
666.0,-111.0,-37.0,126.0,-4000.0,4000.0,368.0,99.0
465.0,-310.0,-14.0,-23.0,-4000.0,4000.0,1214.0,90.0
80.0,-505.0,73.0,-161.0,-4000.0,4000.0,1602.0,99.0
-195.0,-631.0,112.0,-359.0,-4000.0,4000.0,1214.0,52.0
-323.0,-562.0,105.0,-205.0,-4000.0,4000.0,656.0,30.0
-274.0,-730.0,49.0,-227.0,-4000.0,1409.0,684.0,74.0
-35.0,-790.0,-29.0,-326.0,-4000.0,-273.0,563.0,-27.0
109.0,-340.0,10.0,-1.0,-4000.0,-532.0,532.0,-45.0
116.0,-2.0,146.0,236.0,-4000.0,-796.0,693.0,-120.0
-22.0,-102.0,202.0,95.0,-4000.0,-1550.0,824.0,-164.0
-218.0,-125.0,190.0,-41.0,-2537.0,-2338.0,980.0,-94.0
-428.0,-40.0,219.0,-82.0,-877.0,-2463.0,1214.0,-91.0
-575.0,58.0,253.0,-156.0,-242.0,-2510.0,1004.0,-91.0
-266.0,135.0,334.0,-150.0,-621.0,-2351.0,642.0,-126.0
-255.0,110.0,354.0,-161.0,-2270.0,-2469.0,871.0,37.0
-241.0,58.0,130.0,-52.0,-4000.0,-2402.0,934.0,65.0
495.0,12.0,-93.0,51.0,-4000.0,-2366.0,1141.0,-183.0
772.0,119.0,-56.0,122.0,-4000.0,-2839.0,1522.0,-389.0
824.0,68.0,13.0,174.0,-4000.0,-3984.0,1540.0,-679.0
772.0,95.0,-119.0,90.0,-4000.0,-4000.0,1399.0,-818.0
322.0,106.0,-154.0,91.0,-4000.0,-4000.0,1060.0,-553.0
39.0,60.0,-129.0,158.0,-4000.0,-4000.0,1019.0,-148.0
-17.0,132.0,-152.0,140.0,-4000.0,-4000.0,1474.0,-64.0
70.0,99.0,-12.0,139.0,-4000.0,-4000.0,1825.0,-41.0
4.0,139.0,24.0,161.0,-4000.0,-4000.0,1630.0,-9.0
-87.0,156.0,-26.0,142.0,-4000.0,-3763.0,1271.0,-48.0
-86.0,128.0,-274.0,150.0,-4000.0,-1951.0,726.0,30.0
-154.0,55.0,-238.0,207.0,-4000.0,268.0,73.0,181.0
-220.0,-71.0,16.0,305.0,-4000.0,1591.0,-53.0,654.0
-193.0,-96.0,-171.0,289.0,-4000.0,1573.0,106.0,1122.0
-142.0,-53.0,-192.0,230.0,-4000.0,953.0,315.0,1272.0
-85.0,-53.0,-149.0,185.0,-4000.0,45.0,283.0,1176.0
-90.0,-26.0,-158.0,126.0,-4000.0,-796.0,17.0,955.0
-32.0,18.0,-224.0,-21.0,-4000.0,-1960.0,-257.0,695.0
-50.0,43.0,-190.0,-298.0,-4000.0,-2867.0,-501.0,319.0
-190.0,49.0,34.0,-414.0,-4000.0,-2983.0,-514.0,-152.0
-250.0,-28.0,201.0,-388.0,-4000.0,-3144.0,-424.0,-844.0
-237.0,-64.0,211.0,-301.0,-4000.0,-2867.0,-576.0,-1659.0
-79.0,-14.0,11.0,-214.0,-4000.0,-2386.0,-716.0,-1735.0
-26.0,68.0,-116.0,-157.0,-924.0,-1701.0,-917.0,-1404.0
-193.0,82.0,-98.0,-149.0,4000.0,-786.0,-1189.0,-492.0
-589.0,-5.0,-10.0,-159.0,4000.0,-317.0,-1332.0,580.0
-483.0,-89.0,45.0,-123.0,4000.0,-34.0,-1503.0,434.0
107.0,-70.0,113.0,-94.0,4000.0,-94.0,-1570.0,751.0
412.0,-56.0,21.0,-66.0,4000.0,343.0,-1671.0,1112.0
659.0,-56.0,-84.0,-40.0,4000.0,987.0,-1851.0,1112.0
603.0,1.0,47.0,-122.0,4000.0,1092.0,-2008.0,947.0
-4.0,-37.0,44.0,-55.0,4000.0,1114.0,-2015.0,686.0
-582.0,-82.0,17.0,-100.0,4000.0,701.0,-1914.0,609.0
-118.0,-78.0,23.0,-139.0,4000.0,622.0,-1853.0,409.0
238.0,-92.0,-54.0,69.0,4000.0,716.0,-1749.0,384.0
186.0,-72.0,-31.0,-20.0,4000.0,641.0,-1551.0,292.0
-346.0,-76.0,17.0,-93.0,4000.0,655.0,-1497.0,264.0
-647.0,-48.0,70.0,-60.0,4000.0,967.0,-1462.0,213.0
-105.0,-42.0,116.0,34.0,4000.0,1287.0,-1441.0,172.0
-49.0,-38.0,160.0,-9.0,4000.0,1077.0,-1423.0,168.0
382.0,-36.0,172.0,-18.0,4000.0,628.0,-1441.0,148.0
489.0,-38.0,55.0,80.0,4000.0,415.0,-1319.0,308.0
396.0,-33.0,-26.0,13.0,4000.0,655.0,-1096.0,556.0
-245.0,-68.0,-102.0,51.0,4000.0,701.0,-946.0,781.0
-1072.0,-47.0,-96.0,126.0,4000.0,1009.0,-972.0,976.0
-631.0,-31.0,-34.0,189.0,4000.0,1704.0,-790.0,1195.0
-136.0,-19.0,-55.0,88.0,4000.0,2110.0,-595.0,1319.0
232.0,33.0,-49.0,56.0,4000.0,2424.0,-750.0,1384.0
424.0,23.0,-2.0,120.0,4000.0,2645.0,-745.0,1403.0
387.0,34.0,16.0,91.0,4000.0,3280.0,-680.0,1403.0
342.0,71.0,-2.0,42.0,4000.0,3280.0,-601.0,1399.0
25.0,89.0,-16.0,32.0,4000.0,2840.0,-298.0,1337.0
-1567.0,131.0,15.0,130.0,4000.0,2549.0,27.0,1272.0
-2528.0,147.0,-1.0,170.0,4000.0,2288.0,431.0,1207.0
-209.0,135.0,-66.0,134.0,4000.0,2568.0,590.0,1182.0
1090.0,113.0,-39.0,95.0,4000.0,2320.0,598.0,1085.0
863.0,72.0,-17.0,84.0,4000.0,2124.0,734.0,1000.0
1025.0,52.0,-1.0,-13.0,3215.0,1994.0,637.0,947.0
1043.0,47.0,23.0,-113.0,1482.0,1592.0,427.0,890.0
1441.0,-69.0,-6.0,-183.0,-168.0,1214.0,429.0,798.0
1226.0,-182.0,-80.0,-285.0,-1665.0,987.0,526.0,532.0
1246.0,-97.0,-72.0,-206.0,-2870.0,1247.0,557.0,213.0
994.0,-15.0,-30.0,-140.0,-3834.0,1710.0,619.0,-50.0
603.0,-20.0,5.0,-284.0,-4000.0,1775.0,693.0,-234.0
32.0,-74.0,38.0,-129.0,-4000.0,1417.0,717.0,-234.0
-544.0,-117.0,3.0,76.0,-4000.0,1077.0,667.0,-186.0
-425.0,-118.0,55.0,59.0,-4000.0,557.0,603.0,-118.0
-99.0,-155.0,107.0,67.0,-4000.0,44.0,628.0,-68.0
157.0,-143.0,136.0,-36.0,-4000.0,-206.0,726.0,-62.0
-234.0,-144.0,146.0,-57.0,-4000.0,-208.0,809.0,-84.0
-372.0,-137.0,154.0,-96.0,-4000.0,-275.0,759.0,-89.0
-482.0,-13.0,177.0,-75.0,-4000.0,-227.0,734.0,-132.0
-560.0,98.0,121.0,-46.0,-4000.0,-154.0,732.0,-215.0
-575.0,170.0,93.0,-69.0,-4000.0,-55.0,844.0,-235.0
-714.0,222.0,73.0,-33.0,-4000.0,154.0,1092.0,-269.0
-763.0,205.0,29.0,-4.0,-4000.0,254.0,1228.0,-247.0
-698.0,160.0,-9.0,59.0,-4000.0,433.0,954.0,-163.0
-428.0,99.0,-37.0,77.0,-4000.0,607.0,521.0,4.0
-437.0,94.0,-57.0,161.0,-4000.0,791.0,209.0,125.0
-295.0,191.0,-44.0,309.0,-4000.0,870.0,380.0,202.0
-90.0,269.0,-87.0,512.0,-4000.0,888.0,1004.0,292.0
167.0,294.0,-92.0,693.0,-4000.0,746.0,1474.0,303.0
436.0,190.0,-123.0,720.0,-4000.0,589.0,1735.0,367.0
296.0,114.0,-163.0,598.0,-4000.0,551.0,1602.0,401.0
149.0,113.0,-129.0,558.0,-4000.0,433.0,1259.0,487.0
121.0,52.0,-144.0,533.0,-4000.0,229.0,875.0,648.0
204.0,23.0,-121.0,179.0,-4000.0,-51.0,661.0,778.0
198.0,-34.0,-125.0,-253.0,-4000.0,26.0,748.0,955.0
184.0,-21.0,-50.0,-812.0,-4000.0,22.0,1084.0,1176.0
184.0,-42.0,51.0,-1272.0,-4000.0,-314.0,1444.0,1272.0
30.0,-140.0,-44.0,-1357.0,-4000.0,-565.0,1658.0,1403.0
-78.0,-125.0,-225.0,-1174.0,-4000.0,-875.0,1734.0,1533.0
-123.0,-136.0,-776.0,-984.0,-4000.0,-1075.0,1353.0,1573.0
-147.0,-215.0,-825.0,-711.0,-4000.0,-940.0,1125.0,1533.0
-123.0,-261.0,215.0,-384.0,-4000.0,-528.0,866.0,1468.0
-123.0,-310.0,676.0,-539.0,-4000.0,-186.0,481.0,1399.0
-201.0,-436.0,781.0,-498.0,-4000.0,-16.0,58.0,1241.0
-81.0,-375.0,764.0,-17.0,-4000.0,9.0,-224.0,947.0
16.0,-328.0,506.0,260.0,-4000.0,84.0,-235.0,541.0
39.0,-314.0,325.0,217.0,-4000.0,-51.0,-106.0,188.0
109.0,-248.0,-257.0,229.0,-4000.0,-216.0,111.0,-256.0
117.0,-216.0,-776.0,207.0,-4000.0,8.0,431.0,-572.0
138.0,-143.0,-490.0,223.0,-4000.0,-375.0,732.0,-809.0
127.0,-111.0,101.0,276.0,-4000.0,-1005.0,333.0,-934.0
125.0,-55.0,427.0,282.0,-3817.0,-1311.0,-152.0,-659.0
103.0,-21.0,502.0,328.0,-3237.0,-2403.0,-790.0,-758.0
86.0,-6.0,248.0,305.0,-2611.0,-4000.0,-1513.0,-692.0
-17.0,-89.0,83.0,309.0,-2065.0,-4000.0,-1884.0,-248.0
-15.0,-73.0,-70.0,272.0,-1674.0,-4000.0,-2317.0,-411.0
114.0,68.0,-128.0,280.0,-1361.0,-1253.0,-2237.0,-357.0
56.0,71.0,-99.0,262.0,-1039.0,-375.0,-1767.0,-195.0
-47.0,30.0,-145.0,229.0,-616.0,-843.0,-1250.0,-325.0
-67.0,17.0,-228.0,222.0,-70.0,-1070.0,-737.0,-370.0
-42.0,-16.0,-473.0,179.0,379.0,433.0,-371.0,-431.0
-72.0,-22.0,-371.0,185.0,641.0,1839.0,-345.0,-492.0
-29.0,9.0,-304.0,133.0,1248.0,2694.0,-699.0,-447.0
54.0,20.0,-536.0,90.0,2189.0,2775.0,-1051.0,-170.0
49.0,72.0,-405.0,107.0,2484.0,2255.0,-1454.0,-25.0
-183.0,73.0,16.0,99.0,2363.0,2503.0,-1710.0,92.0
-493.0,103.0,244.0,110.0,2378.0,3018.0,-1690.0,50.0
-481.0,150.0,345.0,125.0,2296.0,3604.0,-1388.0,-105.0
-388.0,119.0,316.0,99.0,2578.0,2888.0,-1063.0,-165.0
-428.0,78.0,162.0,51.0,3167.0,1352.0,-992.0,-64.0
-222.0,71.0,60.0,42.0,4000.0,-251.0,-1054.0,352.0
-33.0,73.0,145.0,69.0,4000.0,-982.0,-1071.0,654.0
-286.0,44.0,280.0,44.0,4000.0,-1248.0,-985.0,788.0
52.0,29.0,311.0,-5.0,4000.0,-1135.0,-741.0,707.0
-233.0,14.0,419.0,26.0,4000.0,-354.0,-383.0,526.0
-589.0,60.0,382.0,5.0,4000.0,576.0,-98.0,373.0
768.0,81.0,191.0,-55.0,4000.0,1417.0,145.0,271.0
1311.0,93.0,51.0,-123.0,4000.0,1474.0,441.0,116.0
1476.0,157.0,-91.0,-154.0,4000.0,888.0,571.0,-76.0
1547.0,103.0,-328.0,-131.0,4000.0,-234.0,486.0,-179.0
790.0,-8.0,-580.0,-136.0,4000.0,-1444.0,391.0,-305.0
267.0,-69.0,-373.0,-156.0,4000.0,-2481.0,345.0,-305.0
-48.0,30.0,-425.0,-188.0,4000.0,-2788.0,350.0,-242.0
-319.0,77.0,-651.0,-165.0,4000.0,-2079.0,433.0,-278.0
-631.0,41.0,65.0,-184.0,4000.0,-857.0,587.0,-327.0
-710.0,122.0,533.0,-172.0,4000.0,660.0,779.0,-366.0
-873.0,140.0,751.0,-181.0,4000.0,1929.0,867.0,-427.0
-960.0,193.0,801.0,-181.0,4000.0,2824.0,888.0,-406.0
-527.0,212.0,498.0,-127.0,4000.0,3280.0,824.0,-339.0
-311.0,225.0,335.0,-137.0,4000.0,3426.0,628.0,-268.0
-207.0,275.0,134.0,-112.0,3916.0,3330.0,492.0,-153.0
-190.0,247.0,-36.0,-120.0,3529.0,2863.0,462.0,-114.0
-1170.0,227.0,-625.0,-86.0,2842.0,2125.0,468.0,-101.0
-2968.0,179.0,-1028.0,-66.0,2308.0,1315.0,529.0,-28.0
-2515.0,209.0,-552.0,-67.0,1853.0,583.0,655.0,-12.0
-218.0,193.0,-173.0,-21.0,1482.0,-182.0,850.0,-67.0
1300.0,128.0,-119.0,7.0,1018.0,-852.0,1092.0,-96.0
3110.0,160.0,42.0,29.0,998.0,-1119.0,1259.0,-168.0
3624.0,213.0,-138.0,9.0,1395.0,-1140.0,1214.0,-195.0
2809.0,233.0,-515.0,13.0,1775.0,-529.0,1060.0,-221.0
1572.0,201.0,-519.0,12.0,2060.0,510.0,759.0,-353.0
538.0,225.0,-111.0,20.0,1966.0,1442.0,394.0,-291.0
-2.0,217.0,154.0,51.0,1473.0,2319.0,259.0,-201.0
-700.0,150.0,400.0,39.0,979.0,2759.0,349.0,-232.0
-1064.0,121.0,450.0,-7.0,692.0,2881.0,474.0,-166.0
-1045.0,103.0,459.0,-35.0,635.0,2382.0,445.0,-69.0
-614.0,95.0,556.0,-20.0,758.0,1538.0,401.0,16.0
-305.0,44.0,334.0,21.0,771.0,994.0,449.0,137.0
134.0,0.0,197.0,61.0,794.0,784.0,479.0,190.0
0.0,-5.0,89.0,63.0,550.0,880.0,433.0,203.0
-392.0,-10.0,-41.0,74.0,53.0,860.0,303.0,283.0
-339.0,-19.0,-440.0,61.0,-504.0,766.0,123.0,355.0
195.0,-26.0,-245.0,25.0,-698.0,563.0,-25.0,385.0
529.0,-1.0,546.0,-3.0,-640.0,160.0,-122.0,409.0
593.0,16.0,728.0,-90.0,-1182.0,-159.0,-290.0,426.0
683.0,152.0,891.0,-127.0,-1129.0,-423.0,-424.0,409.0
424.0,290.0,708.0,-198.0,-681.0,-620.0,-403.0,377.0
249.0,200.0,303.0,-263.0,-419.0,-856.0,-275.0,334.0
-108.0,22.0,-11.0,-232.0,106.0,-1186.0,-238.0,290.0
-257.0,-67.0,-328.0,-185.0,109.0,-1396.0,-137.0,279.0
-301.0,-128.0,-782.0,-112.0,143.0,-1532.0,-43.0,202.0
-321.0,-192.0,-1492.0,-76.0,-34.0,-1831.0,-125.0,189.0
-271.0,-248.0,-1227.0,-76.0,-409.0,-2382.0,-135.0,172.0
-268.0,-215.0,-1073.0,-118.0,-643.0,-3051.0,-190.0,129.0
-272.0,-137.0,-1387.0,-37.0,-1058.0,-3659.0,-399.0,80.0
-295.0,-146.0,-350.0,59.0,-1491.0,-3895.0,-529.0,-40.0
-38.0,-129.0,361.0,55.0,-1944.0,-3698.0,-334.0,-144.0
80.0,-150.0,373.0,69.0,-2238.0,-3387.0,-76.0,-297.0
-449.0,-183.0,23.0,110.0,-2537.0,-3405.0,-17.0,-417.0
-1704.0,-194.0,-1294.0,104.0,-2715.0,-3916.0,17.0,-555.0
-1687.0,-220.0,-1214.0,49.0,-2912.0,-4000.0,24.0,-675.0
-719.0,-244.0,-29.0,68.0,-3083.0,-3275.0,-101.0,-748.0
-508.0,-240.0,1127.0,75.0,-3237.0,-1727.0,-294.0,-824.0
627.0,-169.0,2030.0,90.0,-3498.0,-314.0,-412.0,-824.0
1423.0,-154.0,1875.0,133.0,-3586.0,403.0,-363.0,-866.0
493.0,-138.0,1452.0,131.0,-3701.0,506.0,-294.0,-915.0
-896.0,-137.0,911.0,100.0,-3982.0,280.0,-306.0,-948.0
-580.0,-132.0,301.0,7.0,-3970.0,14.0,-320.0,-993.0
524.0,-67.0,-220.0,-84.0,-3754.0,-313.0,-290.0,-979.0
521.0,-54.0,-458.0,-47.0,-3510.0,-473.0,-179.0,-948.0
-360.0,-100.0,-350.0,-3.0,-2977.0,-476.0,-138.0,-948.0
-518.0,-93.0,-263.0,-18.0,-2977.0,-306.0,-123.0,-875.0
640.0,49.0,-445.0,7.0,-3510.0,-89.0,-151.0,-809.0
888.0,160.0,-490.0,22.0,-3661.0,-28.0,-245.0,-724.0
1507.0,158.0,-203.0,-1.0,-2859.0,126.0,-246.0,-584.0
1810.0,120.0,-135.0,13.0,-1463.0,426.0,-280.0,-496.0
1897.0,121.0,-86.0,19.0,-239.0,1018.0,-290.0,-357.0
1572.0,162.0,-48.0,-29.0,182.0,1580.0,-216.0,-194.0
888.0,208.0,-78.0,-160.0,275.0,1799.0,-137.0,-91.0
408.0,209.0,-90.0,-191.0,953.0,2019.0,24.0,20.0
-502.0,222.0,-111.0,-137.0,1182.0,2124.0,124.0,108.0
-331.0,241.0,-190.0,-137.0,1340.0,2031.0,-25.0,170.0
-368.0,200.0,-133.0,-122.0,1930.0,1704.0,-194.0,225.0
-518.0,125.0,-5.0,-131.0,3167.0,1083.0,-195.0,239.0
-685.0,40.0,110.0,-143.0,4000.0,53.0,-91.0,292.0
-736.0,37.0,174.0,-128.0,4000.0,-1135.0,24.0,304.0
-616.0,89.0,172.0,-87.0,4000.0,-1951.0,40.0,348.0
-580.0,49.0,162.0,-75.0,4000.0,-2447.0,-17.0,379.0
-625.0,-20.0,28.0,-83.0,4000.0,-2713.0,21.0,341.0
-850.0,-120.0,20.0,-36.0,4000.0,-2928.0,105.0,373.0
-1365.0,-179.0,55.0,-34.0,3668.0,-3104.0,79.0,373.0
-1585.0,-188.0,89.0,-32.0,2085.0,-3364.0,-163.0,361.0
-815.0,-210.0,98.0,5.0,1344.0,-3571.0,-355.0,340.0
-184.0,-219.0,79.0,49.0,1417.0,-3453.0,-394.0,269.0
269.0,-214.0,24.0,51.0,1995.0,-3258.0,-384.0,230.0
122.0,-168.0,-3.0,63.0,2748.0,-2774.0,-287.0,227.0
-313.0,-153.0,48.0,76.0,3167.0,-1847.0,-345.0,144.0
-182.0,-144.0,61.0,31.0,4000.0,-232.0,-465.0,59.0
-404.0,-159.0,-4.0,34.0,4000.0,1118.0,-685.0,90.0
-1343.0,-194.0,-56.0,34.0,4000.0,1508.0,-1096.0,83.0
-1621.0,-159.0,-63.0,103.0,4000.0,2164.0,-1423.0,30.0
-870.0,-109.0,-14.0,144.0,4000.0,2580.0,-1718.0,-22.0
-388.0,-63.0,38.0,78.0,4000.0,1917.0,-1881.0,-89.0
538.0,1.0,-304.0,18.0,4000.0,563.0,-1498.0,-186.0
1433.0,70.0,-955.0,-75.0,4000.0,-485.0,-907.0,-317.0
1690.0,152.0,-930.0,-94.0,4000.0,-997.0,-465.0,-427.0
2219.0,128.0,-217.0,-75.0,4000.0,-526.0,-76.0,-479.0
2712.0,41.0,125.0,-103.0,4000.0,41.0,273.0,-557.0
2287.0,-44.0,384.0,-89.0,4000.0,271.0,514.0,-589.0
1411.0,-55.0,130.0,-73.0,4000.0,941.0,702.0,-565.0
905.0,-12.0,-1227.0,-76.0,4000.0,764.0,1092.0,-594.0
220.0,-23.0,-2515.0,-69.0,3733.0,-119.0,1316.0,-540.0
-148.0,-48.0,-2739.0,-86.0,2630.0,-733.0,962.0,-496.0
-392.0,-70.0,-1041.0,-41.0,2376.0,-680.0,402.0,-398.0
-580.0,-53.0,1703.0,-14.0,1865.0,-358.0,464.0,-265.0
-468.0,78.0,2472.0,-37.0,1312.0,141.0,1019.0,-139.0
-544.0,227.0,1047.0,-63.0,1352.0,1136.0,1164.0,-9.0
-555.0,254.0,272.0,-35.0,1579.0,1527.0,1059.0,71.0
-599.0,144.0,1794.0,36.0,1930.0,1655.0,523.0,165.0
-679.0,43.0,2783.0,80.0,2439.0,1572.0,-394.0,213.0
-850.0,30.0,2941.0,125.0,2630.0,1518.0,-587.0,192.0
-1280.0,20.0,3054.0,128.0,2695.0,1775.0,-119.0,204.0
-1402.0,40.0,2146.0,207.0,2683.0,2031.0,538.0,178.0
-974.0,7.0,1029.0,301.0,2320.0,2124.0,1406.0,99.0
-831.0,-2.0,-931.0,264.0,1409.0,2047.0,1574.0,-4.0
-1010.0,-28.0,-1947.0,207.0,375.0,1907.0,1149.0,-124.0
-779.0,-23.0,-1404.0,154.0,-677.0,1340.0,832.0,-166.0
346.0,-1.0,-1022.0,96.0,-1701.0,1140.0,702.0,-195.0
2028.0,-195.0,-1149.0,32.0,-2483.0,1580.0,563.0,-215.0
2418.0,-275.0,-1362.0,-25.0,-3192.0,1720.0,250.0,-223.0
2093.0,-176.0,-957.0,-11.0,-3753.0,1409.0,-6.0,-253.0
1507.0,-98.0,-682.0,29.0,-4000.0,1182.0,-65.0,-301.0
725.0,55.0,-401.0,13.0,-4000.0,1287.0,254.0,-370.0
391.0,160.0,190.0,9.0,-3539.0,1222.0,474.0,-492.0
-419.0,108.0,129.0,6.0,-4000.0,896.0,380.0,-594.0
-1072.0,-74.0,-10.0,-20.0,-4000.0,433.0,456.0,-658.0
-1853.0,-135.0,-774.0,-105.0,-4000.0,217.0,693.0,-622.0
-2454.0,-6.0,-2524.0,-141.0,-4000.0,303.0,759.0,-454.0
-2643.0,85.0,-2770.0,-84.0,-4000.0,451.0,563.0,-345.0
-4000.0,126.0,-1257.0,-63.0,-4000.0,396.0,464.0,-274.0
-4000.0,79.0,-52.0,-70.0,-4000.0,-101.0,600.0,-126.0
-2920.0,160.0,1197.0,-99.0,-4000.0,-333.0,598.0,-95.0
608.0,294.0,1544.0,-92.0,-4000.0,-39.0,474.0,-69.0
3236.0,278.0,814.0,-185.0,-4000.0,262.0,485.0,38.0
4000.0,215.0,757.0,-239.0,-4000.0,329.0,481.0,190.0
4000.0,27.0,695.0,-160.0,-4000.0,254.0,485.0,414.0
4000.0,-128.0,888.0,-116.0,-4000.0,142.0,394.0,725.0
3300.0,-158.0,1068.0,-13.0,-4000.0,315.0,365.0,1091.0
2146.0,-94.0,1084.0,16.0,-4000.0,393.0,433.0,1446.0
1346.0,-88.0,845.0,11.0,-4000.0,188.0,426.0,1846.0
979.0,-108.0,217.0,42.0,-4000.0,-101.0,384.0,2183.0
196.0,-31.0,-300.0,-2.0,-4000.0,-206.0,349.0,2442.0
-1815.0,10.0,-552.0,-32.0,-4000.0,-187.0,407.0,2689.0
-3164.0,29.0,-536.0,-78.0,-4000.0,-7.0,341.0,2819.0
-2096.0,26.0,-425.0,-239.0,-4000.0,225.0,220.0,2872.0
-945.0,29.0,-411.0,-371.0,-4000.0,195.0,207.0,2819.0
47.0,99.0,-486.0,-328.0,-4000.0,-43.0,161.0,2819.0
1310.0,188.0,-379.0,-226.0,-4000.0,-325.0,86.0,2901.0
1950.0,145.0,-125.0,-122.0,-4000.0,-448.0,-88.0,3079.0
1030.0,14.0,-308.0,-123.0,-4000.0,-548.0,-359.0,3404.0
-1687.0,-64.0,-1769.0,-145.0,-4000.0,-423.0,-436.0,3676.0
-2219.0,-60.0,-2786.0,-134.0,-4000.0,-277.0,-182.0,3723.0
-1402.0,-31.0,-2094.0,-91.0,-4000.0,-185.0,-104.0,3535.0
-404.0,44.0,-494.0,3.0,-4000.0,-29.0,-207.0,3328.0
424.0,-3.0,1257.0,81.0,-4000.0,354.0,-277.0,3014.0
399.0,-38.0,2391.0,164.0,-4000.0,870.0,-353.0,2510.0
961.0,40.0,2795.0,164.0,-4000.0,1292.0,-359.0,1895.0
1671.0,-18.0,2343.0,193.0,-4000.0,1864.0,-384.0,1242.0
2080.0,-86.0,1508.0,168.0,-4000.0,2377.0,-394.0,739.0
1441.0,-288.0,801.0,163.0,-4000.0,2759.0,-412.0,293.0
692.0,-509.0,450.0,250.0,-4000.0,3083.0,-433.0,-137.0
171.0,-413.0,207.0,282.0,-2935.0,3280.0,-420.0,-454.0
-295.0,-196.0,85.0,229.0,-2108.0,3101.0,-489.0,-720.0
-980.0,-169.0,134.0,31.0,-1244.0,2682.0,-542.0,-940.0
-1560.0,-82.0,-277.0,-83.0,-215.0,2251.0,-546.0,-1050.0
-1417.0,78.0,-572.0,-74.0,801.0,1604.0,-485.0,-1206.0
-1324.0,147.0,-430.0,-19.0,1855.0,758.0,-428.0,-1339.0
-1324.0,152.0,-615.0,-34.0,2748.0,-323.0,-455.0,-1520.0
-1195.0,110.0,-1338.0,-64.0,3332.0,-1682.0,-532.0,-1681.0
-580.0,199.0,-1022.0,-81.0,3859.0,-3181.0,-548.0,-1788.0
-195.0,225.0,-357.0,-122.0,4000.0,-4000.0,-294.0,-1839.0
-116.0,197.0,27.0,-85.0,4000.0,-4000.0,-69.0,-1723.0
-22.0,124.0,630.0,-76.0,4000.0,-4000.0,-133.0,-1404.0
-119.0,108.0,642.0,-39.0,4000.0,-4000.0,-290.0,-1013.0
-620.0,117.0,288.0,-48.0,4000.0,-4000.0,-247.0,-605.0
-2060.0,70.0,-637.0,-45.0,4000.0,-4000.0,-220.0,-175.0
-3215.0,95.0,-1944.0,-19.0,4000.0,-4000.0,-383.0,159.0
-3489.0,48.0,-2964.0,-38.0,4000.0,-4000.0,-542.0,421.0
-4000.0,-10.0,-2606.0,-46.0,3334.0,-3645.0,-802.0,564.0
-4000.0,-34.0,-2147.0,-73.0,2085.0,-2986.0,-882.0,591.0
195.0,16.0,-1362.0,1.0,1340.0,-2463.0,-607.0,597.0
4000.0,28.0,1322.0,49.0,612.0,-2248.0,-379.0,503.0
4000.0,40.0,3316.0,109.0,-348.0,-2026.0,-235.0,423.0
4000.0,64.0,4000.0,134.0,-1398.0,-1882.0,-298.0,361.0
4000.0,40.0,3445.0,83.0,-1919.0,-1550.0,-534.0,302.0
1767.0,40.0,2681.0,96.0,-1918.0,-816.0,-279.0,241.0
705.0,13.0,2221.0,95.0,-2029.0,-216.0,-24.0,153.0
640.0,84.0,1379.0,69.0,-2122.0,677.0,-35.0,14.0
1319.0,164.0,1062.0,16.0,-2405.0,1539.0,-13.0,-125.0
1897.0,174.0,701.0,18.0,-2688.0,1591.0,-27.0,-330.0
2223.0,121.0,476.0,72.0,-2794.0,837.0,-4.0,-508.0
-844.0,152.0,-33.0,75.0,-3445.0,458.0,123.0,-622.0
-3606.0,114.0,-651.0,105.0,-4000.0,909.0,622.0,-804.0
-4000.0,14.0,-1362.0,96.0,-4000.0,1092.0,889.0,-985.0
-4000.0,5.0,-2238.0,45.0,-3445.0,597.0,587.0,-1148.0
-736.0,-155.0,-2770.0,75.0,-2250.0,411.0,178.0,-1274.0
2922.0,-241.0,-2981.0,104.0,-999.0,1157.0,84.0,-1392.0
4000.0,-220.0,-2216.0,50.0,201.0,1898.0,100.0,-1534.0
4000.0,-199.0,-1944.0,8.0,440.0,2189.0,-135.0,-1632.0
2650.0,-149.0,-3284.0,-20.0,-321.0,1994.0,-387.0,-1746.0
566.0,-81.0,-4000.0,-54.0,-788.0,1601.0,-121.0,-1891.0
-1639.0,-46.0,-3070.0,-62.0,-280.0,1409.0,413.0,-2016.0
-2486.0,0.0,-670.0,-68.0,1521.0,1417.0,474.0,-2088.0
-2964.0,48.0,2746.0,-41.0,3725.0,1604.0,545.0,-2165.0
-3046.0,30.0,4000.0,-45.0,4000.0,1474.0,384.0,-2187.0
-1866.0,60.0,4000.0,-34.0,4000.0,1462.0,319.0,-2128.0
-305.0,64.0,3043.0,6.0,4000.0,1604.0,457.0,-2081.0
1065.0,82.0,-912.0,59.0,4000.0,1730.0,498.0,-2050.0
1507.0,168.0,-2513.0,81.0,4000.0,1795.0,608.0,-2004.0
340.0,152.0,-2886.0,37.0,4000.0,1604.0,404.0,-1924.0
-1010.0,46.0,-1911.0,-13.0,4000.0,1333.0,396.0,-1885.0
-1530.0,-81.0,1501.0,-35.0,4000.0,1026.0,315.0,-1743.0
-2568.0,-160.0,3251.0,42.0,4000.0,563.0,63.0,-1632.0
-2498.0,-125.0,3763.0,92.0,4000.0,118.0,18.0,-1514.0
-1585.0,-114.0,3316.0,59.0,4000.0,-25.0,22.0,-1404.0
-779.0,-118.0,-774.0,32.0,4000.0,37.0,13.0,-1324.0
-90.0,-69.0,-4000.0,-10.0,4000.0,244.0,32.0,-1234.0
-1298.0,-72.0,-4000.0,-133.0,4000.0,345.0,76.0,-1180.0
-3311.0,-29.0,-3991.0,-224.0,4000.0,457.0,76.0,-1111.0
-3870.0,42.0,-1769.0,-186.0,4000.0,412.0,66.0,-1037.0
-3687.0,-16.0,1444.0,-105.0,4000.0,103.0,15.0,-940.0
-1834.0,-72.0,-1257.0,-111.0,4000.0,-210.0,-69.0,-818.0
1737.0,-38.0,-4000.0,-162.0,4000.0,-506.0,-159.0,-692.0
4000.0,-15.0,-4000.0,-159.0,4000.0,-638.0,-142.0,-620.0
4000.0,7.0,3054.0,-130.0,4000.0,-591.0,-182.0,-549.0
4000.0,24.0,4000.0,-49.0,4000.0,-310.0,-200.0,-472.0
2329.0,-19.0,4000.0,-59.0,4000.0,15.0,-212.0,-380.0
-1723.0,-137.0,4000.0,-85.0,4000.0,280.0,-224.0,-282.0
-2302.0,-172.0,4000.0,4.0,4000.0,441.0,-184.0,-164.0
1832.0,-78.0,4000.0,-6.0,3476.0,419.0,-277.0,-59.0
4000.0,67.0,2070.0,-3.0,2889.0,368.0,-260.0,73.0
4000.0,160.0,-734.0,55.0,2060.0,349.0,-239.0,239.0
4000.0,180.0,-2950.0,107.0,1721.0,425.0,-261.0,308.0
1365.0,184.0,-3632.0,174.0,2386.0,528.0,-217.0,342.0
-1585.0,178.0,-3201.0,199.0,2889.0,336.0,-186.0,369.0
-2903.0,115.0,-4000.0,203.0,3102.0,-129.0,-207.0,308.0
-2920.0,66.0,-4000.0,161.0,3150.0,-423.0,-220.0,202.0
-2899.0,102.0,-4000.0,56.0,2320.0,-579.0,-176.0,165.0
-2611.0,-1.0,-3485.0,40.0,1227.0,-540.0,-176.0,131.0
-3424.0,-157.0,-2981.0,99.0,-85.0,-184.0,-176.0,67.0
-4000.0,-278.0,-2770.0,48.0,-1272.0,-47.0,-159.0,51.0
-4000.0,-356.0,-1914.0,-65.0,-2225.0,79.0,-142.0,28.0
-4000.0,-306.0,-1211.0,-131.0,-3274.0,180.0,-156.0,-24.0
-2322.0,-218.0,-416.0,-227.0,-4000.0,142.0,-130.0,-42.0
3884.0,-113.0,-362.0,-243.0,-4000.0,33.0,-104.0,-20.0
4000.0,-88.0,-548.0,-194.0,-4000.0,-227.0,-66.0,3.0
4000.0,-50.0,-385.0,-185.0,-4000.0,-390.0,-19.0,56.0
4000.0,-26.0,-589.0,-217.0,-4000.0,-597.0,-3.0,111.0
3827.0,-17.0,-970.0,-226.0,-4000.0,-459.0,67.0,159.0
1637.0,-40.0,-477.0,-136.0,-4000.0,93.0,85.0,228.0
-1324.0,-63.0,-580.0,-119.0,-4000.0,692.0,76.0,322.0
-4000.0,4.0,-1748.0,-126.0,-4000.0,809.0,156.0,434.0
-4000.0,1.0,-3030.0,-107.0,-4000.0,506.0,283.0,513.0
-4000.0,2.0,-2627.0,-137.0,-4000.0,233.0,232.0,569.0
-4000.0,108.0,-716.0,-116.0,-4000.0,100.0,172.0,686.0
-714.0,256.0,-1779.0,-112.0,-4000.0,248.0,113.0,772.0
1624.0,374.0,-3795.0,-111.0,-4000.0,-56.0,-17.0,816.0
4000.0,395.0,-2501.0,-92.0,-4000.0,-414.0,30.0,881.0
4000.0,290.0,17.0,-81.0,-4000.0,-349.0,-26.0,890.0
4000.0,182.0,1662.0,-67.0,-4000.0,-313.0,-48.0,876.0
4000.0,217.0,1497.0,-88.0,-4000.0,-373.0,119.0,867.0
2092.0,221.0,2538.0,-131.0,-4000.0,-257.0,189.0,831.0
2874.0,84.0,4000.0,-96.0,-4000.0,89.0,214.0,745.0
1671.0,25.0,4000.0,-68.0,-3868.0,152.0,246.0,634.0
705.0,37.0,4000.0,18.0,-3391.0,179.0,246.0,548.0
-1110.0,73.0,4000.0,131.0,-4000.0,118.0,290.0,490.0
-2409.0,87.0,3462.0,194.0,-4000.0,127.0,299.0,434.0
-1087.0,41.0,2548.0,209.0,-4000.0,419.0,248.0,356.0
27.0,60.0,911.0,164.0,-4000.0,374.0,267.0,312.0
1690.0,75.0,-694.0,139.0,-4000.0,179.0,243.0,249.0
1634.0,15.0,-2267.0,56.0,-4000.0,-123.0,204.0,198.0
255.0,13.0,-3136.0,-18.0,-4000.0,-333.0,188.0,95.0
-1996.0,-24.0,-4000.0,-28.0,-3474.0,-51.0,210.0,6.0
-4000.0,-139.0,-4000.0,-50.0,-1915.0,209.0,262.0,-46.0
-4000.0,-266.0,-4000.0,-102.0,-1052.0,164.0,225.0,-124.0
-4000.0,-280.0,-4000.0,-76.0,-710.0,9.0,170.0,-158.0
-4000.0,-163.0,-1258.0,-106.0,-1319.0,-3.0,246.0,-224.0
-4000.0,2.0,1770.0,-201.0,-812.0,223.0,431.0,-291.0
-3489.0,235.0,3977.0,-247.0,683.0,463.0,439.0,-330.0
3070.0,282.0,2486.0,-336.0,1639.0,458.0,246.0,-362.0
4000.0,193.0,1249.0,-365.0,2360.0,542.0,-92.0,-424.0
4000.0,45.0,-1823.0,-388.0,3150.0,409.0,-316.0,-518.0
4000.0,-106.0,-737.0,-365.0,3772.0,143.0,-363.0,-562.0
4000.0,-181.0,3593.0,-177.0,4000.0,319.0,-640.0,-601.0
4000.0,-188.0,4000.0,69.0,4000.0,548.0,-941.0,-590.0
1507.0,-160.0,4000.0,238.0,4000.0,880.0,-917.0,-563.0
-805.0,-222.0,2081.0,238.0,4000.0,1098.0,-179.0,-620.0
-2306.0,-179.0,-4000.0,303.0,4000.0,1201.0,470.0,-630.0
-2628.0,-47.0,-4000.0,329.0,4000.0,1273.0,767.0,-673.0
-3835.0,190.0,-4000.0,297.0,4000.0,1227.0,714.0,-692.0
-4000.0,420.0,-4000.0,276.0,4000.0,1380.0,248.0,-685.0
-4000.0,300.0,-2524.0,240.0,4000.0,1474.0,172.0,-685.0
-4000.0,52.0,4000.0,226.0,4000.0,1474.0,220.0,-679.0
-2708.0,-129.0,4000.0,152.0,3790.0,1409.0,498.0,-671.0
-4000.0,-198.0,4000.0,27.0,4000.0,1248.0,962.0,-638.0
-3865.0,-190.0,4000.0,-42.0,4000.0,1121.0,1267.0,-605.0
-2581.0,-242.0,4000.0,-162.0,4000.0,1033.0,857.0,-613.0
-1417.0,-181.0,4000.0,-305.0,4000.0,660.0,391.0,-594.0
1051.0,-75.0,4000.0,-279.0,4000.0,141.0,326.0,-528.0
827.0,20.0,4000.0,-96.0,3916.0,-338.0,-159.0,-467.0
1820.0,-7.0,4000.0,59.0,4000.0,-676.0,-522.0,-389.0
3443.0,-125.0,-320.0,40.0,4000.0,-965.0,-1119.0,-288.0
4000.0,-122.0,-3782.0,92.0,3541.0,-1270.0,-1454.0,-217.0
4000.0,-97.0,-4000.0,110.0,3657.0,-1396.0,-782.0,-137.0
4000.0,-26.0,-4000.0,-43.0,3664.0,-1526.0,497.0,-82.0
3430.0,8.0,-4000.0,-86.0,3410.0,-1568.0,945.0,-46.0
-178.0,91.0,-4000.0,-30.0,3744.0,-1586.0,94.0,21.0
-2938.0,179.0,-3782.0,41.0,4000.0,-1664.0,-568.0,49.0
-4000.0,168.0,-2260.0,92.0,4000.0,-1652.0,-977.0,112.0
-4000.0,87.0,-1452.0,130.0,4000.0,-1550.0,-394.0,255.0
-4000.0,-60.0,-959.0,69.0,4000.0,-1367.0,262.0,406.0
-4000.0,-157.0,-2483.0,-73.0,3916.0,-1183.0,-23.0,467.0
-4000.0,-160.0,-3330.0,-161.0,2889.0,-976.0,220.0,597.0
-4000.0,-68.0,-3030.0,-133.0,2378.0,-835.0,380.0,876.0
-4000.0,-115.0,-1655.0,-137.0,902.0,-750.0,133.0,1063.0
1146.0,-181.0,-1878.0,-175.0,216.0,-722.0,-130.0,1183.0
4000.0,-190.0,-4000.0,-212.0,328.0,-672.0,-107.0,1333.0
4000.0,-259.0,-4000.0,-187.0,-395.0,-647.0,325.0,1541.0
4000.0,-239.0,-1748.0,-23.0,-2289.0,-651.0,243.0,1793.0
4000.0,-183.0,-552.0,54.0,-4000.0,-656.0,44.0,2054.0
4000.0,1.0,4000.0,31.0,-4000.0,-698.0,32.0,2484.0
3508.0,180.0,4000.0,-24.0,-4000.0,-594.0,162.0,3014.0
2211.0,163.0,4000.0,-56.0,-4000.0,-485.0,142.0,3654.0
2663.0,256.0,4000.0,-40.0,-4000.0,-320.0,-485.0,4000.0
2092.0,325.0,-1341.0,-71.0,-4000.0,-53.0,-1107.0,4000.0
758.0,412.0,-4000.0,-132.0,-4000.0,51.0,-811.0,4000.0
-291.0,485.0,-4000.0,-152.0,-4000.0,221.0,1.0,4000.0
-2643.0,374.0,-4000.0,-80.0,-4000.0,347.0,469.0,4000.0
-3721.0,300.0,-936.0,-21.0,-4000.0,138.0,481.0,4000.0
-4000.0,170.0,4000.0,-53.0,-4000.0,-81.0,196.0,4000.0
-4000.0,11.0,4000.0,-46.0,-2158.0,-102.0,254.0,4000.0
