-1110.0,93.0,-251.0,-84.0,-4000.0,953.0,31.0,3487.0
-1131.0,132.0,-308.0,844.0,-4000.0,1182.0,602.0,4000.0
-1105.0,1.0,-145.0,720.0,-4000.0,921.0,759.0,4000.0
-807.0,-71.0,-257.0,728.0,-4000.0,394.0,496.0,4000.0
-483.0,5.0,-664.0,728.0,-4000.0,-169.0,30.0,4000.0
-508.0,137.0,-804.0,616.0,-4000.0,-630.0,-75.0,4000.0
-247.0,-101.0,-727.0,836.0,-4000.0,-672.0,92.0,4000.0
-39.0,-440.0,-473.0,1241.0,-4000.0,-137.0,116.0,3806.0
160.0,-1283.0,-145.0,2187.0,-4000.0,746.0,106.0,1846.0
80.0,-1802.0,-11.0,2086.0,-4000.0,1579.0,261.0,4000.0
-64.0,-1342.0,-108.0,1892.0,-4000.0,2512.0,598.0,2856.0
-51.0,-590.0,-99.0,2139.0,-4000.0,3018.0,989.0,1395.0
40.0,-318.0,0.0,1954.0,-4000.0,2943.0,1330.0,1468.0
145.0,-650.0,-116.0,1169.0,1222.0,2771.0,1534.0,-120.0
116.0,-575.0,72.0,-178.0,4000.0,2308.0,1866.0,-853.0
114.0,148.0,520.0,-1870.0,4000.0,2251.0,1971.0,-1469.0
315.0,333.0,671.0,-3960.0,4000.0,2512.0,1931.0,-2425.0
556.0,214.0,345.0,-3705.0,3916.0,2428.0,2061.0,-4000.0
433.0,326.0,-29.0,-2471.0,4000.0,2056.0,2125.0,-3024.0
287.0,227.0,-69.0,-901.0,4000.0,1018.0,2321.0,1901.0
553.0,355.0,-10.0,476.0,4000.0,-318.0,2517.0,3723.0
899.0,465.0,-15.0,714.0,4000.0,-2996.0,2647.0,2705.0
566.0,316.0,12.0,2281.0,4000.0,-4000.0,3103.0,1698.0
-300.0,-163.0,85.0,2775.0,4000.0,-4000.0,3983.0,-140.0
-506.0,-295.0,51.0,2086.0,4000.0,-3387.0,4000.0,-1891.0
-1131.0,-209.0,-86.0,1053.0,4000.0,-2998.0,3904.0,-2392.0
-2891.0,-398.0,-104.0,-73.0,4000.0,-3910.0,3270.0,-3387.0
-3543.0,-537.0,0.0,-1044.0,4000.0,-4000.0,2631.0,-4000.0
-3697.0,-509.0,-4.0,-1935.0,4000.0,-4000.0,628.0,-3753.0
-2593.0,-338.0,-316.0,-2586.0,4000.0,-4000.0,-1496.0,-2698.0
-479.0,36.0,-557.0,-2491.0,4000.0,-4000.0,-3510.0,-2941.0
608.0,457.0,-177.0,-1842.0,4000.0,-4000.0,-4000.0,-2165.0
1557.0,46.0,74.0,-1492.0,4000.0,-3659.0,-4000.0,-1469.0
2080.0,-171.0,324.0,207.0,4000.0,-1715.0,-4000.0,-1534.0
2396.0,-83.0,566.0,960.0,4000.0,394.0,-3700.0,-274.0
3378.0,-118.0,427.0,773.0,4000.0,2308.0,-4000.0,-248.0
4000.0,-53.0,606.0,950.0,4000.0,3604.0,-4000.0,-52.0
4000.0,-265.0,741.0,785.0,4000.0,4000.0,-3660.0,515.0
3647.0,-171.0,850.0,891.0,4000.0,4000.0,-2408.0,955.0
2597.0,124.0,663.0,1021.0,3916.0,4000.0,-1796.0,3340.0
1022.0,451.0,77.0,1306.0,3150.0,4000.0,-2842.0,4000.0
222.0,1246.0,-232.0,1234.0,2241.0,4000.0,-4000.0,3658.0
-818.0,2156.0,-220.0,1098.0,1604.0,4000.0,-4000.0,4000.0
-1762.0,2234.0,-270.0,577.0,1118.0,4000.0,-4000.0,3404.0
-1915.0,2169.0,-385.0,386.0,684.0,4000.0,-2505.0,1848.0
-1430.0,1821.0,-155.0,565.0,216.0,4000.0,-8.0,283.0
-1300.0,1116.0,-10.0,-366.0,-212.0,2840.0,661.0,-1511.0
-1196.0,581.0,-33.0,-1738.0,-486.0,1417.0,903.0,-2747.0
-974.0,-1024.0,-104.0,-1691.0,-812.0,725.0,1483.0,-3244.0
-779.0,-3472.0,-126.0,-1036.0,-1094.0,1148.0,1098.0,-4000.0
-654.0,-3588.0,-20.0,-747.0,-1333.0,1639.0,1657.0,-3113.0
-1022.0,-1407.0,21.0,-589.0,-1528.0,1409.0,1345.0,-983.0
-966.0,-1008.0,-163.0,-584.0,-1854.0,1077.0,1581.0,1134.0
-620.0,-562.0,-304.0,509.0,-2224.0,719.0,2321.0,3654.0
-300.0,-72.0,-282.0,1684.0,-2436.0,319.0,1670.0,4000.0
-196.0,52.0,-373.0,2086.0,-2676.0,36.0,962.0,4000.0
-352.0,420.0,-230.0,1631.0,-3018.0,-204.0,213.0,-2392.0
-506.0,200.0,-277.0,1033.0,-3688.0,-97.0,441.0,-4000.0
-467.0,599.0,-185.0,-57.0,-4000.0,246.0,571.0,-4000.0
-315.0,574.0,-37.0,-951.0,-4000.0,191.0,962.0,-4000.0
-318.0,672.0,-175.0,-279.0,-4000.0,-710.0,2375.0,-4000.0
-255.0,672.0,-111.0,2722.0,-4000.0,-1434.0,4000.0,-4000.0
-136.0,392.0,-171.0,4000.0,-4000.0,-1532.0,3399.0,-4000.0
-3.0,190.0,-141.0,3162.0,-4000.0,-1915.0,832.0,2498.0
95.0,376.0,-57.0,858.0,-4000.0,-2105.0,-1519.0,3340.0
177.0,2867.0,-39.0,-2831.0,-4000.0,-2079.0,-3574.0,1898.0
281.0,4000.0,-9.0,-4000.0,-4000.0,-2105.0,-4000.0,4000.0
330.0,4000.0,-32.0,-4000.0,-4000.0,-1896.0,-4000.0,4000.0
169.0,4000.0,-26.0,-4000.0,-3985.0,-1487.0,-4000.0,4000.0
-201.0,3583.0,-4.0,-3854.0,-3856.0,-966.0,-4000.0,1334.0
-132.0,-568.0,26.0,-3364.0,-3575.0,-584.0,-4000.0,-2518.0
195.0,-4000.0,52.0,-1180.0,-3197.0,-175.0,-2405.0,-3007.0
188.0,-4000.0,106.0,968.0,-2953.0,6.0,394.0,450.0
-11.0,-4000.0,118.0,2270.0,-2660.0,79.0,2514.0,2030.0
-496.0,-4000.0,71.0,2592.0,-2454.0,349.0,3463.0,2437.0
-590.0,-4000.0,-36.0,2722.0,-2531.0,415.0,4000.0,2689.0
-375.0,-4000.0,-77.0,628.0,-2561.0,150.0,4000.0,1728.0
-1996.0,-4000.0,-52.0,-1145.0,-2482.0,-680.0,4000.0,788.0
-4000.0,-2615.0,11.0,-1565.0,-2147.0,-1396.0,4000.0,-1894.0
-4000.0,138.0,89.0,-1740.0,-1528.0,-1664.0,3152.0,-3154.0
-4000.0,1624.0,158.0,-1500.0,-1267.0,-1307.0,2696.0,1663.0
-4000.0,1258.0,131.0,-1435.0,-1263.0,-1161.0,2297.0,4000.0
-368.0,1071.0,84.0,-1357.0,-883.0,-1115.0,1996.0,4000.0
4000.0,1246.0,83.0,-1305.0,-679.0,-548.0,1670.0,3469.0
4000.0,1500.0,1.0,-900.0,-419.0,-271.0,1334.0,2248.0
4000.0,1803.0,-270.0,-1044.0,-7.0,-125.0,238.0,3356.0
4000.0,1831.0,-641.0,-690.0,175.0,-565.0,-310.0,4000.0
4000.0,1908.0,-651.0,-290.0,338.0,480.0,-282.0,4000.0
4000.0,1974.0,-776.0,447.0,550.0,1252.0,-77.0,4000.0
2874.0,2156.0,-1127.0,799.0,766.0,1657.0,-91.0,4000.0
648.0,2298.0,-1036.0,712.0,859.0,1937.0,-442.0,2118.0
-1300.0,2155.0,-1028.0,1169.0,953.0,636.0,-794.0,2290.0
-1459.0,1908.0,-1388.0,1175.0,941.0,-129.0,-833.0,3340.0
-1560.0,1689.0,-1849.0,1619.0,837.0,-790.0,-658.0,1045.0
-2061.0,1266.0,-2073.0,1666.0,725.0,1452.0,-664.0,2183.0
-4000.0,868.0,-2524.0,1554.0,562.0,2568.0,-646.0,4000.0
-4000.0,849.0,-2770.0,1436.0,440.0,169.0,-651.0,4000.0
-4000.0,868.0,-2045.0,1189.0,375.0,-741.0,-811.0,3716.0
-4000.0,751.0,-393.0,1232.0,383.0,-771.0,-1234.0,-11.0
-4000.0,888.0,2148.0,1039.0,267.0,-362.0,-1497.0,-1924.0
-152.0,1227.0,2913.0,915.0,0.0,-1467.0,-1422.0,-2395.0
4000.0,1243.0,-651.0,649.0,-225.0,-2510.0,-1076.0,-1514.0
4000.0,1396.0,-4000.0,490.0,-263.0,-1367.0,-769.0,-1823.0
4000.0,2026.0,-4000.0,515.0,-372.0,-147.0,-768.0,-2676.0
4000.0,2039.0,-3832.0,577.0,-324.0,1573.0,-649.0,-4000.0
-599.0,1226.0,-3998.0,598.0,-102.0,1969.0,-598.0,-4000.0
-4000.0,657.0,-3946.0,310.0,-40.0,-310.0,-613.0,-4000.0
-4000.0,-127.0,-4000.0,-216.0,-88.0,-1383.0,-680.0,-4000.0
-3347.0,-1220.0,-667.0,-597.0,11.0,-1330.0,-861.0,-1339.0
2679.0,-1653.0,4000.0,-888.0,151.0,-3535.0,-917.0,4000.0
4000.0,-2306.0,4000.0,-1219.0,171.0,-4000.0,-1135.0,4000.0
4000.0,-2733.0,4000.0,-1283.0,301.0,-2647.0,-1238.0,4000.0
2585.0,-2928.0,4000.0,-1044.0,432.0,1824.0,-1201.0,4000.0
-2684.0,-2822.0,4000.0,-489.0,684.0,4000.0,-1332.0,4000.0
-4000.0,-2046.0,4000.0,-61.0,876.0,4000.0,-1238.0,4000.0
-4000.0,-1837.0,2548.0,13.0,787.0,4000.0,-1311.0,4000.0
-924.0,-1350.0,-228.0,-20.0,804.0,4000.0,-1441.0,4000.0
4000.0,-546.0,1680.0,75.0,692.0,2694.0,-1193.0,2948.0
4000.0,-222.0,3072.0,439.0,401.0,-541.0,-1120.0,2237.0
4000.0,355.0,-277.0,728.0,270.0,-4000.0,-941.0,742.0
3721.0,1497.0,-4000.0,980.0,128.0,-4000.0,-662.0,550.0
4000.0,3452.0,-4000.0,1175.0,-177.0,-1688.0,-241.0,-193.0
-1560.0,4000.0,-4000.0,1249.0,-286.0,2943.0,14.0,52.0
-4000.0,4000.0,-4000.0,1053.0,-138.0,1842.0,139.0,-98.0
-4000.0,2534.0,2483.0,858.0,-16.0,30.0,557.0,-279.0
-4000.0,111.0,4000.0,891.0,14.0,-2528.0,725.0,332.0
-4000.0,-2482.0,4000.0,402.0,-92.0,-2608.0,714.0,-108.0
-180.0,-3602.0,4000.0,-225.0,-253.0,-2271.0,858.0,-153.0
4000.0,-3407.0,4000.0,-445.0,-323.0,-4000.0,1288.0,-583.0
4000.0,-1851.0,4000.0,-580.0,-291.0,-3363.0,1866.0,-1859.0
4000.0,374.0,4000.0,-833.0,165.0,368.0,2255.0,-2800.0
4000.0,941.0,4000.0,-1158.0,562.0,3267.0,2579.0,-2218.0
2728.0,-261.0,4000.0,-1109.0,619.0,4000.0,2631.0,-3773.0
-4000.0,290.0,1936.0,-1095.0,491.0,4000.0,2321.0,-4000.0
-3412.0,1331.0,1989.0,-1225.0,235.0,1329.0,2179.0,-3708.0
-201.0,-334.0,381.0,-1370.0,219.0,778.0,1983.0,-3397.0
1214.0,-1767.0,2289.0,-1303.0,801.0,1734.0,1645.0,-4000.0
-771.0,-3770.0,2260.0,-1006.0,1201.0,-1103.0,1475.0,-1390.0
-4000.0,-4000.0,217.0,-874.0,896.0,-4000.0,1149.0,680.0
-4000.0,-4000.0,-4000.0,-717.0,751.0,-4000.0,628.0,1045.0
-4000.0,-4000.0,-4000.0,-488.0,859.0,-1886.0,51.0,1663.0
-4000.0,-3278.0,-4000.0,-302.0,1344.0,31.0,-342.0,2876.0
-2336.0,-432.0,-4000.0,-217.0,1604.0,-1452.0,-284.0,3719.0
1384.0,1425.0,-4000.0,-159.0,1824.0,-1330.0,-178.0,2314.0
-634.0,1128.0,-4000.0,-72.0,2124.0,-2738.0,-182.0,1395.0
-4000.0,998.0,-4000.0,141.0,1983.0,-3405.0,-146.0,556.0
-3876.0,876.0,-4000.0,245.0,1966.0,-1599.0,-104.0,141.0
-4000.0,1071.0,-4000.0,287.0,1930.0,462.0,-244.0,-324.0
-4000.0,3192.0,-4000.0,323.0,1292.0,2060.0,-363.0,-599.0
-4000.0,4000.0,3072.0,490.0,635.0,3398.0,-505.0,-788.0
-4000.0,3569.0,4000.0,793.0,538.0,2809.0,-717.0,-1208.0
-4000.0,1167.0,4000.0,793.0,-95.0,57.0,-728.0,-1365.0
-4000.0,-728.0,-4000.0,499.0,-714.0,358.0,-613.0,-1709.0
4000.0,-2677.0,-4000.0,191.0,-788.0,1124.0,-676.0,-1756.0
4000.0,-3397.0,-4000.0,220.0,-386.0,603.0,-794.0,-2035.0
4000.0,-3589.0,2027.0,484.0,298.0,1704.0,-459.0,-1829.0
4000.0,-3082.0,4000.0,551.0,337.0,3214.0,-287.0,-1534.0
4000.0,-2501.0,4000.0,743.0,188.0,4000.0,-202.0,-985.0
-3022.0,-1338.0,4000.0,1175.0,-738.0,4000.0,98.0,-508.0
-4000.0,908.0,4000.0,915.0,-1433.0,4000.0,282.0,-1143.0
-3544.0,2658.0,4000.0,310.0,-1377.0,3857.0,753.0,-1925.0
-1233.0,3657.0,4000.0,54.0,-1626.0,953.0,1267.0,-2004.0
929.0,4000.0,4000.0,-214.0,-1571.0,-713.0,1825.0,-1738.0
-1837.0,4000.0,4000.0,-515.0,-1784.0,-2268.0,2244.0,-2893.0
-3028.0,4000.0,3054.0,-513.0,-2081.0,-4000.0,2552.0,-3284.0
-4000.0,4000.0,-4000.0,-479.0,-2095.0,-2998.0,2879.0,-1449.0
-4000.0,4000.0,-4000.0,-523.0,-1853.0,-1915.0,2631.0,-563.0
-4000.0,1712.0,-4000.0,-140.0,-1398.0,-1237.0,2061.0,-427.0
-4000.0,-3619.0,-4000.0,109.0,-1185.0,-1396.0,1454.0,2183.0
-1544.0,-4000.0,-4000.0,289.0,-1137.0,-2738.0,878.0,4000.0
-690.0,-4000.0,2730.0,695.0,-1007.0,-3193.0,571.0,3096.0
-2031.0,-4000.0,3885.0,703.0,-1033.0,-2998.0,782.0,2498.0
-1658.0,-4000.0,4000.0,386.0,-1114.0,-911.0,1118.0,2883.0
3950.0,-4000.0,4000.0,-93.0,-877.0,837.0,1444.0,2754.0
4000.0,-1837.0,3741.0,-357.0,-883.0,811.0,1693.0,2237.0
4000.0,1877.0,-1517.0,-645.0,-967.0,1628.0,1592.0,1403.0
-4000.0,4000.0,-4000.0,-959.0,-775.0,2503.0,1532.0,980.0
-4000.0,4000.0,-4000.0,-1016.0,-502.0,2836.0,1267.0,5.0
-4000.0,4000.0,-4000.0,-1044.0,167.0,3526.0,1019.0,-1261.0
3443.0,2556.0,-3605.0,-1044.0,1148.0,4000.0,1007.0,-1274.0
2192.0,256.0,584.0,-971.0,1787.0,3810.0,669.0,-883.0
4000.0,-1702.0,-673.0,-776.0,1669.0,2812.0,194.0,-714.0
4000.0,-3123.0,-4000.0,-800.0,1378.0,1759.0,48.0,-643.0
-3347.0,-3848.0,-4000.0,-855.0,1482.0,622.0,165.0,-1115.0
-4000.0,-3407.0,-4000.0,-841.0,2485.0,-354.0,-151.0,-1148.0
-4000.0,-2627.0,1824.0,-515.0,3020.0,-1376.0,-1332.0,-1115.0
4000.0,-2015.0,4000.0,-153.0,1547.0,-2250.0,-3118.0,-153.0
4000.0,-1216.0,1770.0,152.0,392.0,-2156.0,-3928.0,1150.0
4000.0,405.0,-4000.0,276.0,-254.0,-1424.0,-3837.0,13.0
4000.0,2143.0,-4000.0,152.0,-877.0,-966.0,-3379.0,1573.0
4000.0,1974.0,-4000.0,215.0,-206.0,-964.0,-2934.0,2413.0
4000.0,1518.0,3983.0,305.0,-372.0,-932.0,-3191.0,407.0
-32.0,1384.0,4000.0,323.0,-649.0,-939.0,-2934.0,-398.0
-954.0,1453.0,4000.0,199.0,607.0,-584.0,-2594.0,-1445.0
-1827.0,1701.0,4000.0,467.0,1454.0,374.0,-2691.0,-1659.0
-3605.0,1713.0,4000.0,1155.0,2451.0,1344.0,-2752.0,-1856.0
-4000.0,1778.0,4000.0,1470.0,3664.0,2158.0,-2985.0,-484.0
-4000.0,1583.0,2730.0,1151.0,3596.0,2450.0,-2988.0,-549.0
-4000.0,1623.0,-4000.0,720.0,2695.0,2580.0,-2594.0,-1723.0
-4000.0,1447.0,-4000.0,364.0,1134.0,2888.0,-2399.0,-500.0
-873.0,1193.0,-4000.0,337.0,-604.0,2888.0,-2453.0,157.0
1507.0,1181.0,-4000.0,548.0,-791.0,3036.0,-2597.0,-1894.0
4000.0,1713.0,-2137.0,565.0,1312.0,3345.0,-2311.0,-4000.0
2781.0,3192.0,4000.0,583.0,4000.0,3528.0,-1438.0,-4000.0
-1081.0,3813.0,4000.0,518.0,4000.0,3539.0,-371.0,-4000.0
-2076.0,3014.0,4000.0,402.0,4000.0,3280.0,954.0,-2876.0
-4000.0,1123.0,4000.0,-67.0,2972.0,2617.0,838.0,-1508.0
-4000.0,-1005.0,2343.0,-717.0,4000.0,1722.0,-359.0,-1445.0
-4000.0,-2174.0,923.0,-979.0,4000.0,622.0,-902.0,784.0
-4000.0,-3123.0,-318.0,-849.0,2748.0,-1688.0,-1358.0,2313.0
-4000.0,-3331.0,-4000.0,-641.0,-3511.0,-4000.0,-1388.0,4000.0
4000.0,-2751.0,-3395.0,-576.0,-4000.0,-4000.0,-2158.0,4000.0
4000.0,-2080.0,4000.0,-455.0,-4000.0,-4000.0,-4000.0,4000.0
4000.0,-1017.0,4000.0,-308.0,-4000.0,-4000.0,-4000.0,4000.0
4000.0,227.0,4000.0,-326.0,-4000.0,-4000.0,-4000.0,4000.0
4000.0,985.0,-682.0,-351.0,-4000.0,-1569.0,-4000.0,4000.0
1194.0,1374.0,148.0,-255.0,1222.0,641.0,-2597.0,4000.0
-4000.0,1097.0,-3537.0,-239.0,4000.0,1669.0,-1197.0,3067.0
-4000.0,836.0,-4000.0,-188.0,4000.0,684.0,-41.0,-3333.0
-4000.0,319.0,-4000.0,-90.0,4000.0,22.0,1280.0,-4000.0
-3851.0,-46.0,-4000.0,19.0,4000.0,-1318.0,2101.0,-4000.0
-535.0,37.0,2290.0,77.0,2513.0,-1883.0,2177.0,-4000.0
1045.0,-275.0,630.0,-25.0,-673.0,-1330.0,2255.0,-4000.0
573.0,-52.0,1738.0,114.0,1539.0,-832.0,2505.0,-4000.0
-1481.0,331.0,1310.0,215.0,4000.0,-100.0,2761.0,-3373.0
382.0,1373.0,2352.0,222.0,4000.0,681.0,2746.0,-2193.0
2393.0,2462.0,996.0,245.0,4000.0,2124.0,2361.0,-1175.0
2777.0,2299.0,801.0,152.0,4000.0,3148.0,2126.0,-1534.0
2809.0,1249.0,1692.0,220.0,4000.0,3621.0,2309.0,-2153.0
2015.0,-199.0,-692.0,276.0,4000.0,3166.0,2429.0,-2893.0
1540.0,-1415.0,-1211.0,310.0,4000.0,2450.0,2291.0,-4000.0
1000.0,-2139.0,-2822.0,325.0,4000.0,1443.0,2232.0,-4000.0
719.0,-2680.0,-4000.0,227.0,4000.0,100.0,2179.0,-3969.0
1492.0,-3082.0,-4000.0,129.0,4000.0,-903.0,2309.0,-2101.0
1376.0,-2733.0,-4000.0,28.0,-3445.0,-1431.0,2379.0,-875.0
511.0,-2307.0,-4000.0,-147.0,-4000.0,-1487.0,2387.0,-2872.0
-3721.0,-2061.0,-1881.0,-227.0,-4000.0,-1831.0,2492.0,-4000.0
-4000.0,-1277.0,-4000.0,-214.0,-4000.0,-2144.0,2631.0,-4000.0
-4000.0,-585.0,-4000.0,-196.0,-4000.0,-2313.0,3021.0,-4000.0
2028.0,-677.0,4000.0,-137.0,-4000.0,-2400.0,3168.0,-2670.0
4000.0,-536.0,4000.0,-100.0,-4000.0,-2479.0,3021.0,-1200.0
4000.0,-314.0,4000.0,-163.0,-4000.0,-2431.0,2749.0,112.0
3761.0,-149.0,2421.0,-214.0,-4000.0,-2315.0,2449.0,1142.0
2028.0,-122.0,4000.0,-137.0,-4000.0,-2014.0,2190.0,2883.0
-19.0,-318.0,4000.0,-123.0,-4000.0,-1506.0,1866.0,4000.0
-1039.0,-149.0,-1720.0,63.0,-4000.0,-1196.0,1967.0,4000.0
-1430.0,-10.0,-2538.0,329.0,2225.0,-985.0,2232.0,4000.0
-2708.0,19.0,4000.0,402.0,4000.0,-320.0,2086.0,4000.0
-2061.0,53.0,4000.0,374.0,4000.0,738.0,1353.0,4000.0
-2149.0,307.0,-4000.0,431.0,4000.0,1214.0,1264.0,4000.0
-1947.0,406.0,-1797.0,548.0,4000.0,1547.0,1602.0,4000.0
-1430.0,460.0,4000.0,337.0,4000.0,1507.0,1076.0,4000.0
-1045.0,530.0,4000.0,62.0,4000.0,815.0,738.0,4000.0
-426.0,460.0,4000.0,28.0,4000.0,921.0,481.0,1567.0
-217.0,460.0,4000.0,272.0,4000.0,1253.0,309.0,1411.0
-163.0,460.0,1192.0,356.0,4000.0,1266.0,199.0,1000.0
-156.0,442.0,-1563.0,73.0,2825.0,1390.0,-308.0,471.0
-95.0,355.0,-2806.0,-111.0,1263.0,1417.0,-363.0,2435.0
-147.0,400.0,-1881.0,-100.0,680.0,1864.0,-489.0,2184.0
-33.0,355.0,-1321.0,104.0,635.0,1969.0,-876.0,2094.0
-52.0,290.0,-1914.0,65.0,-812.0,1539.0,-1011.0,1242.0
-36.0,264.0,-2187.0,-37.0,-2118.0,1462.0,-1006.0,-996.0
-25.0,205.0,-2057.0,-29.0,-2818.0,1292.0,-1187.0,-1959.0
67.0,239.0,-2202.0,-108.0,-3391.0,1222.0,-1673.0,-1723.0
134.0,355.0,-1427.0,-173.0,-3985.0,1033.0,-1804.0,-1241.0
68.0,577.0,-781.0,-301.0,-4000.0,858.0,-1448.0,-692.0
-59.0,790.0,-218.0,-401.0,-4000.0,1592.0,-1063.0,-144.0
-348.0,941.0,-222.0,-623.0,-4000.0,1864.0,-1076.0,-317.0
-321.0,1041.0,-373.0,-849.0,-4000.0,1012.0,-1096.0,-947.0
-201.0,1167.0,-711.0,-835.0,-4000.0,991.0,-1227.0,-1984.0
-204.0,941.0,-1028.0,-659.0,-4000.0,1214.0,-1358.0,-1671.0
-197.0,542.0,-997.0,-589.0,-4000.0,1026.0,-1258.0,-1801.0
27.0,280.0,-931.0,-487.0,-4000.0,701.0,-1291.0,-1655.0
269.0,-469.0,-753.0,-227.0,-4000.0,223.0,-1076.0,-232.0
257.0,-1389.0,-753.0,264.0,-4000.0,706.0,-876.0,519.0
111.0,-1747.0,-523.0,832.0,-4000.0,1033.0,-630.0,83.0
68.0,-1905.0,-344.0,1110.0,-4000.0,758.0,-371.0,-166.0
123.0,-1754.0,-225.0,1045.0,-4000.0,938.0,-410.0,1142.0
149.0,-1457.0,-105.0,292.0,-3969.0,1266.0,-310.0,1053.0
177.0,-1460.0,-21.0,-401.0,-2870.0,1409.0,-102.0,2284.0
215.0,-983.0,98.0,-645.0,-1915.0,1254.0,-33.0,3014.0
228.0,-562.0,154.0,-724.0,-1207.0,1222.0,197.0,1450.0
160.0,-410.0,138.0,-674.0,-1244.0,1409.0,407.0,-889.0
126.0,-145.0,179.0,-849.0,-812.0,1378.0,620.0,-3969.0
147.0,134.0,328.0,-784.0,398.0,887.0,832.0,-3450.0
192.0,227.0,266.0,-288.0,1824.0,194.0,857.0,-2165.0
294.0,160.0,40.0,455.0,3794.0,-194.0,909.0,-809.0
260.0,225.0,-79.0,818.0,4000.0,-737.0,930.0,276.0
10.0,359.0,-34.0,720.0,4000.0,-1140.0,793.0,-199.0
-105.0,644.0,-36.0,887.0,4000.0,-650.0,818.0,798.0
-20.0,920.0,34.0,675.0,4000.0,-466.0,857.0,1468.0
85.0,1162.0,174.0,103.0,4000.0,-1461.0,856.0,1456.0
342.0,1193.0,140.0,-571.0,4000.0,-3179.0,759.0,1384.0
399.0,1006.0,22.0,-1219.0,4000.0,-4000.0,590.0,1012.0
408.0,770.0,-89.0,-1435.0,4000.0,-3179.0,563.0,144.0
621.0,443.0,-119.0,-1435.0,4000.0,-1915.0,510.0,-1265.0
243.0,25.0,-116.0,-898.0,4000.0,-1727.0,368.0,-2309.0
-541.0,-289.0,-263.0,-466.0,1930.0,-1912.0,111.0,-3514.0
-741.0,-354.0,-480.0,-381.0,-4000.0,-2397.0,-27.0,-1514.0
-675.0,-521.0,-479.0,-31.0,-4000.0,-2919.0,-175.0,-142.0
-609.0,-757.0,-187.0,150.0,-4000.0,-2791.0,-398.0,-1820.0
-354.0,-549.0,34.0,255.0,-4000.0,-2909.0,-550.0,-999.0
-58.0,2.0,225.0,337.0,-4000.0,-2932.0,-615.0,1541.0
281.0,93.0,301.0,433.0,-4000.0,-2574.0,-790.0,3275.0
440.0,109.0,296.0,482.0,-4000.0,-1949.0,-1107.0,3209.0
263.0,212.0,271.0,453.0,-4000.0,-731.0,-1445.0,4000.0
-91.0,217.0,206.0,390.0,-614.0,292.0,-1588.0,4000.0
-232.0,395.0,345.0,394.0,1254.0,1083.0,-1527.0,4000.0
-431.0,395.0,467.0,484.0,4000.0,2124.0,-1397.0,4000.0
-476.0,449.0,410.0,392.0,4000.0,2877.0,-1201.0,4000.0
33.0,406.0,337.0,569.0,4000.0,3200.0,-923.0,4000.0
398.0,294.0,402.0,956.0,4000.0,3214.0,-333.0,4000.0
553.0,187.0,559.0,1151.0,4000.0,3214.0,254.0,-4000.0
673.0,43.0,606.0,1025.0,4000.0,2942.0,1149.0,-4000.0
452.0,-19.0,441.0,749.0,4000.0,2645.0,1993.0,-4000.0
163.0,-78.0,28.0,472.0,4000.0,2382.0,2552.0,-4000.0
-75.0,-8.0,-438.0,217.0,4000.0,1969.0,3347.0,-4000.0
-122.0,58.0,-505.0,-112.0,4000.0,1657.0,3917.0,-4000.0
24.0,217.0,-393.0,-479.0,4000.0,1279.0,4000.0,-4000.0
139.0,347.0,-112.0,-742.0,4000.0,1071.0,4000.0,-4000.0
340.0,386.0,280.0,-1032.0,2941.0,866.0,3728.0,-4000.0
293.0,359.0,309.0,-963.0,615.0,716.0,3411.0,-4000.0
239.0,309.0,540.0,-768.0,-987.0,571.0,2942.0,-4000.0
325.0,225.0,719.0,-659.0,-4000.0,468.0,2440.0,-4000.0
375.0,46.0,612.0,-411.0,-4000.0,394.0,1921.0,-4000.0
232.0,-97.0,385.0,-145.0,-4000.0,217.0,1522.0,-4000.0
21.0,-40.0,52.0,-110.0,-4000.0,63.0,1141.0,1006.0
32.0,38.0,-129.0,-387.0,-4000.0,-106.0,838.0,4000.0
-518.0,-304.0,-306.0,-342.0,-4000.0,-185.0,571.0,4000.0
-1087.0,-393.0,-364.0,-188.0,-4000.0,-312.0,120.0,4000.0
-746.0,-43.0,-285.0,12.0,-2857.0,-447.0,-184.0,4000.0
-341.0,144.0,-208.0,167.0,929.0,-620.0,-428.0,4000.0
-143.0,314.0,-255.0,132.0,4000.0,-750.0,-729.0,4000.0
0.0,395.0,-18.0,242.0,4000.0,-743.0,-941.0,4000.0
-148.0,215.0,-14.0,287.0,4000.0,-685.0,-994.0,4000.0
-168.0,-16.0,-143.0,506.0,4000.0,-620.0,-1206.0,4000.0
155.0,-78.0,-38.0,590.0,4000.0,-611.0,-1519.0,4000.0
277.0,-171.0,45.0,504.0,4000.0,-668.0,-1625.0,4000.0
166.0,-96.0,148.0,313.0,3215.0,-780.0,-1663.0,4000.0
198.0,266.0,61.0,2.0,1722.0,-810.0,-1767.0,4000.0
129.0,621.0,-265.0,-163.0,692.0,-763.0,-2043.0,4000.0
147.0,594.0,-753.0,-141.0,-86.0,-680.0,-2536.0,4000.0
220.0,26.0,-825.0,-5.0,-217.0,-600.0,-3390.0,4000.0
135.0,-286.0,-607.0,144.0,-647.0,-501.0,-4000.0,4000.0
167.0,-205.0,-203.0,236.0,-1573.0,-489.0,-4000.0,4000.0
107.0,-440.0,137.0,223.0,-2318.0,-565.0,-4000.0,3999.0
74.0,-765.0,385.0,116.0,-3247.0,-621.0,-4000.0,3198.0
12.0,-875.0,370.0,-332.0,-4000.0,-595.0,-4000.0,3356.0
-70.0,-1342.0,130.0,69.0,-3988.0,-407.0,-4000.0,4000.0
-101.0,-1601.0,419.0,819.0,-2989.0,-293.0,-4000.0,4000.0
-5.0,-1257.0,374.0,590.0,-2122.0,-342.0,-3981.0,4000.0
-45.0,-617.0,-114.0,498.0,-1638.0,-331.0,-3390.0,4000.0
-248.0,19.0,-425.0,243.0,-1717.0,-310.0,-2793.0,3340.0
-84.0,550.0,-661.0,-160.0,-912.0,-204.0,-2401.0,2624.0
103.0,1128.0,-447.0,-544.0,-170.0,-44.0,-2317.0,1248.0
-183.0,1441.0,36.0,-636.0,365.0,-39.0,-2469.0,-693.0
-440.0,1323.0,-40.0,-737.0,354.0,-113.0,-2495.0,-2865.0
-128.0,1071.0,-316.0,-1526.0,40.0,-163.0,-2276.0,-4000.0
-107.0,569.0,-552.0,-1887.0,-13.0,-178.0,-2317.0,-4000.0
-634.0,-143.0,-839.0,-1174.0,672.0,-123.0,-2453.0,-4000.0
-1105.0,-814.0,-430.0,-241.0,1786.0,73.0,-2495.0,-4000.0
-771.0,-1225.0,125.0,106.0,2683.0,183.0,-2120.0,-2035.0
-416.0,-1537.0,364.0,187.0,2955.0,91.0,-1308.0,-1298.0
-308.0,-1672.0,410.0,272.0,2513.0,-46.0,-717.0,-1256.0
-271.0,-1702.0,461.0,583.0,2296.0,-172.0,-171.0,-2322.0
-467.0,-1472.0,573.0,785.0,2177.0,-179.0,81.0,-4000.0
-20.0,-787.0,801.0,628.0,2019.0,2.0,70.0,-4000.0
243.0,-534.0,728.0,406.0,2085.0,167.0,596.0,-4000.0
493.0,-505.0,439.0,603.0,2159.0,194.0,1259.0,-4000.0
725.0,-127.0,349.0,565.0,1474.0,155.0,1141.0,-4000.0
635.0,187.0,0.0,-299.0,823.0,100.0,995.0,-4000.0
583.0,382.0,-218.0,-704.0,672.0,172.0,1254.0,-4000.0
436.0,489.0,-367.0,-636.0,668.0,216.0,1098.0,-4000.0
399.0,451.0,-247.0,-654.0,627.0,109.0,929.0,-4000.0
241.0,441.0,114.0,-479.0,929.0,205.0,954.0,-3634.0
187.0,420.0,-631.0,138.0,1083.0,112.0,1092.0,-443.0
97.0,420.0,-2847.0,467.0,794.0,-29.0,1214.0,2354.0
-451.0,359.0,-2589.0,248.0,672.0,49.0,1469.0,4000.0
-787.0,278.0,931.0,335.0,157.0,-14.0,1902.0,4000.0
-685.0,217.0,2094.0,152.0,102.0,25.0,2492.0,4000.0
-1639.0,208.0,2030.0,49.0,243.0,122.0,3086.0,4000.0
-2155.0,355.0,1627.0,182.0,-193.0,77.0,3680.0,4000.0
447.0,420.0,716.0,-260.0,-659.0,30.0,4000.0,4000.0
2322.0,412.0,402.0,-614.0,-1102.0,90.0,4000.0,4000.0
2712.0,399.0,-694.0,-717.0,-1374.0,62.0,4000.0,4000.0
2793.0,408.0,-47.0,-584.0,-1491.0,-84.0,4000.0,4000.0
1307.0,420.0,1068.0,-137.0,-1514.0,-156.0,4000.0,4000.0
162.0,395.0,1217.0,191.0,-1424.0,-253.0,4000.0,4000.0
-824.0,404.0,917.0,459.0,-1072.0,-318.0,4000.0,4000.0
-1141.0,384.0,-476.0,366.0,-557.0,-273.0,4000.0,4000.0
-761.0,345.0,-490.0,45.0,-26.0,-130.0,4000.0,3161.0
-631.0,316.0,-425.0,50.0,-360.0,-6.0,4000.0,2819.0
-547.0,273.0,-887.0,104.0,-679.0,-51.0,3397.0,1989.0
-550.0,225.0,-841.0,419.0,71.0,-63.0,2647.0,935.0
-314.0,150.0,-976.0,728.0,-409.0,14.0,1971.0,300.0
-258.0,150.0,-743.0,512.0,-1267.0,57.0,1341.0,-1607.0
-763.0,182.0,-841.0,164.0,-643.0,21.0,746.0,-2694.0
-1170.0,146.0,-811.0,16.0,-384.0,-80.0,213.0,-4000.0
-545.0,48.0,-414.0,-78.0,-1398.0,-109.0,-290.0,-4000.0
-5.0,-36.0,-237.0,-60.0,-3197.0,-169.0,-711.0,-4000.0
272.0,-95.0,-149.0,-74.0,-3456.0,-352.0,-1006.0,-4000.0
477.0,-161.0,-316.0,-141.0,-1795.0,-810.0,-1238.0,-4000.0
269.0,-210.0,-415.0,-68.0,-1358.0,-1532.0,-1357.0,-4000.0
36.0,-222.0,-254.0,77.0,-1508.0,-1356.0,-1507.0,-4000.0
-314.0,-209.0,-55.0,199.0,-1463.0,-107.0,-1716.0,-4000.0
-413.0,-141.0,-46.0,132.0,-1797.0,100.0,-1914.0,-2147.0
-343.0,-114.0,-216.0,18.0,-2065.0,-338.0,-1991.0,-665.0
-140.0,-175.0,-519.0,-55.0,-1963.0,-474.0,-1917.0,-529.0
-156.0,-188.0,-1492.0,-112.0,-1398.0,-188.0,-1944.0,-1469.0
-321.0,-135.0,-1427.0,-133.0,-942.0,64.0,-2107.0,-2450.0
-99.0,-59.0,-759.0,-188.0,-556.0,-76.0,-2246.0,-3154.0
111.0,-51.0,-898.0,-186.0,-772.0,331.0,-2536.0,-3514.0
204.0,-37.0,-617.0,-126.0,-2289.0,944.0,-2924.0,-3321.0
382.0,-13.0,-641.0,-102.0,-3917.0,1734.0,-3105.0,-2411.0
438.0,-12.0,211.0,-95.0,-4000.0,2124.0,-3131.0,-177.0
342.0,57.0,671.0,-168.0,-4000.0,2363.0,-3261.0,1698.0
272.0,44.0,1875.0,-198.0,-4000.0,2289.0,-3342.0,1728.0
143.0,-176.0,2989.0,-78.0,-4000.0,1852.0,-3131.0,499.0
92.0,-383.0,2483.0,13.0,-4000.0,1898.0,-2951.0,-1326.0
104.0,-395.0,2159.0,55.0,-2549.0,1759.0,-2597.0,-3007.0
95.0,-347.0,30.0,100.0,-782.0,2034.0,-2028.0,-3397.0
17.0,-395.0,-747.0,130.0,1639.0,2747.0,-1716.0,-2959.0
-158.0,-411.0,83.0,81.0,4000.0,3409.0,-1527.0,-2128.0
-201.0,-346.0,27.0,-23.0,4000.0,3792.0,-1572.0,-999.0
-73.0,-282.0,183.0,-14.0,4000.0,3720.0,-1332.0,135.0
-20.0,-242.0,284.0,42.0,4000.0,3101.0,-1051.0,955.0
-63.0,-188.0,72.0,115.0,4000.0,1981.0,-1250.0,1476.0
-82.0,-118.0,186.0,156.0,4000.0,961.0,-1258.0,2248.0
-35.0,-131.0,52.0,136.0,4000.0,136.0,-929.0,2966.0
86.0,-155.0,-158.0,133.0,4000.0,-722.0,-420.0,3996.0
-27.0,-95.0,-519.0,33.0,4000.0,-1317.0,129.0,4000.0
-212.0,-40.0,-502.0,-137.0,4000.0,-1831.0,548.0,4000.0
-649.0,21.0,-300.0,-267.0,4000.0,-2185.0,812.0,4000.0
-1837.0,102.0,-75.0,-328.0,4000.0,-2575.0,867.0,4000.0
-2090.0,170.0,93.0,-293.0,4000.0,-3209.0,805.0,4000.0
-1534.0,217.0,166.0,-186.0,4000.0,-3583.0,1019.0,4000.0
-473.0,225.0,308.0,-86.0,4000.0,-3518.0,1137.0,4000.0
755.0,225.0,88.0,-64.0,4000.0,-3311.0,486.0,4000.0
1045.0,258.0,185.0,-40.0,4000.0,-2983.0,328.0,4000.0
2002.0,279.0,-19.0,7.0,3599.0,-2510.0,702.0,3943.0
1767.0,305.0,-15.0,-32.0,660.0,-2040.0,684.0,3996.0
1507.0,316.0,-79.0,-127.0,-1945.0,-1570.0,749.0,3404.0
1702.0,282.0,-271.0,-211.0,-3262.0,-1192.0,734.0,2118.0
1476.0,319.0,-171.0,-175.0,-3833.0,-875.0,1013.0,1450.0
1515.0,334.0,-219.0,-89.0,-3315.0,-707.0,945.0,394.0
654.0,328.0,-129.0,-88.0,-1636.0,-586.0,126.0,-2865.0
121.0,294.0,-165.0,-159.0,1269.0,-576.0,380.0,-4000.0
-245.0,241.0,-93.0,-306.0,4000.0,-615.0,1770.0,-4000.0
-301.0,270.0,-13.0,-198.0,4000.0,-379.0,2101.0,-4000.0
-266.0,307.0,-13.0,-196.0,4000.0,-98.0,1574.0,-4000.0
-493.0,321.0,-94.0,-630.0,4000.0,-138.0,1353.0,-4000.0
-599.0,263.0,-20.0,-770.0,-1369.0,-116.0,1013.0,-4000.0
-714.0,183.0,41.0,-696.0,-4000.0,47.0,559.0,-4000.0
-698.0,135.0,-20.0,-746.0,-4000.0,118.0,-94.0,-4000.0
-599.0,30.0,-2.0,-613.0,-4000.0,213.0,273.0,-3138.0
-550.0,-115.0,-1.0,-279.0,-4000.0,288.0,1723.0,-1697.0
-795.0,-219.0,112.0,-226.0,-4000.0,326.0,2297.0,-474.0
-784.0,-177.0,135.0,-489.0,-4000.0,243.0,1512.0,654.0
-655.0,-100.0,83.0,-784.0,-4000.0,246.0,687.0,1281.0
-416.0,-53.0,14.0,-424.0,-4000.0,309.0,529.0,1527.0
-222.0,-17.0,-54.0,191.0,-4000.0,339.0,429.0,1371.0
-272.0,-43.0,-154.0,229.0,-4000.0,368.0,576.0,1026.0
-941.0,-55.0,-255.0,362.0,-4000.0,254.0,681.0,401.0
-2124.0,-104.0,-688.0,467.0,-4000.0,210.0,687.0,-293.0
-1912.0,-140.0,-1617.0,538.0,-4000.0,138.0,637.0,-1078.0
-1351.0,-122.0,-1166.0,613.0,-4000.0,79.0,529.0,-1518.0
-3571.0,-137.0,215.0,720.0,-4000.0,62.0,494.0,-1521.0
-4000.0,-150.0,402.0,895.0,-4000.0,51.0,331.0,-1442.0
-4000.0,-121.0,-2624.0,988.0,-3586.0,107.0,326.0,-1534.0
-4000.0,13.0,-4000.0,1175.0,-2209.0,50.0,274.0,-1790.0
4000.0,106.0,-3018.0,1216.0,-763.0,37.0,213.0,-1891.0
4000.0,-64.0,3332.0,1241.0,586.0,107.0,195.0,-2127.0
4000.0,-456.0,4000.0,1175.0,1842.0,246.0,175.0,-2309.0
4000.0,-590.0,4000.0,900.0,3281.0,354.0,200.0,-1593.0
4000.0,-295.0,4000.0,524.0,4000.0,315.0,164.0,-492.0
4000.0,-207.0,2730.0,125.0,4000.0,276.0,161.0,-91.0
3234.0,-157.0,1310.0,-344.0,4000.0,267.0,164.0,108.0
2092.0,135.0,401.0,-1011.0,4000.0,282.0,153.0,837.0
2198.0,225.0,136.0,-1292.0,4000.0,229.0,68.0,2225.0
1036.0,222.0,-547.0,-849.0,4000.0,200.0,97.0,3469.0
-1392.0,347.0,-563.0,-251.0,4000.0,220.0,138.0,3727.0
-3140.0,522.0,-676.0,88.0,4000.0,177.0,18.0,2572.0
-3950.0,556.0,-1581.0,246.0,4000.0,209.0,-16.0,255.0
-3787.0,502.0,-3611.0,276.0,4000.0,419.0,31.0,-2862.0
-3087.0,412.0,-3176.0,261.0,4000.0,876.0,-29.0,-2930.0
-2350.0,248.0,-912.0,55.0,4000.0,1192.0,-122.0,-537.0
-2155.0,122.0,-152.0,-10.0,4000.0,1059.0,-138.0,-1279.0
-2203.0,82.0,-382.0,129.0,4000.0,874.0,-125.0,-1204.0
-2126.0,63.0,-532.0,109.0,4000.0,613.0,-84.0,308.0
-1817.0,23.0,215.0,60.0,4000.0,376.0,-88.0,-268.0
-1769.0,13.0,1314.0,55.0,4000.0,283.0,-167.0,-1615.0
-1282.0,-2.0,2276.0,39.0,3476.0,272.0,-209.0,-2088.0
-909.0,-3.0,2330.0,25.0,2813.0,216.0,-204.0,-1521.0
-684.0,15.0,1739.0,38.0,2057.0,71.0,-257.0,-1396.0
-1010.0,33.0,1062.0,55.0,1378.0,94.0,-261.0,1057.0
-2329.0,15.0,415.0,139.0,737.0,32.0,-140.0,1859.0
-2631.0,-33.0,-368.0,310.0,379.0,-48.0,-83.0,541.0
-1010.0,-34.0,-1020.0,490.0,68.0,-125.0,-129.0,976.0
789.0,-53.0,-1036.0,392.0,-291.0,-182.0,-98.0,470.0
2067.0,-94.0,-1036.0,370.0,-665.0,-27.0,-38.0,491.0
1743.0,-112.0,-1084.0,402.0,-908.0,21.0,-8.0,190.0
-367.0,-59.0,-1353.0,125.0,-738.0,26.0,6.0,-614.0
-563.0,-92.0,-1284.0,-261.0,-425.0,44.0,36.0,-1256.0
543.0,-147.0,-1138.0,-589.0,72.0,119.0,144.0,-1430.0
1701.0,-174.0,-1036.0,-855.0,351.0,237.0,232.0,-2128.0
3052.0,-210.0,-447.0,-770.0,473.0,209.0,242.0,-2759.0
2911.0,-155.0,-17.0,-143.0,641.0,216.0,124.0,-1540.0
1038.0,-102.0,228.0,-81.0,801.0,176.0,38.0,-1339.0
123.0,-19.0,142.0,-144.0,953.0,86.0,-15.0,-584.0
-378.0,30.0,99.0,-51.0,1083.0,109.0,-174.0,660.0
-2452.0,24.0,175.0,-116.0,1336.0,123.0,-155.0,1698.0
-2517.0,9.0,205.0,-71.0,1344.0,38.0,-48.0,3275.0
-896.0,-7.0,244.0,-174.0,1182.0,-79.0,73.0,3898.0
464.0,-22.0,169.0,-159.0,887.0,-219.0,228.0,3896.0
1572.0,36.0,205.0,-197.0,589.0,-280.0,223.0,3422.0
1872.0,160.0,246.0,-109.0,621.0,-287.0,206.0,3662.0
1677.0,176.0,240.0,-40.0,692.0,-318.0,105.0,4000.0
855.0,156.0,223.0,-32.0,737.0,-310.0,-39.0,4000.0
-979.0,146.0,244.0,102.0,748.0,-261.0,26.0,4000.0
-3950.0,160.0,263.0,337.0,1018.0,-208.0,110.0,4000.0
-4000.0,168.0,345.0,711.0,1786.0,-254.0,48.0,4000.0
-3347.0,94.0,385.0,785.0,2190.0,-354.0,-55.0,4000.0
-2126.0,60.0,290.0,799.0,1645.0,-345.0,-162.0,4000.0
538.0,77.0,68.0,836.0,1148.0,-29.0,-159.0,4000.0
-451.0,98.0,-109.0,581.0,456.0,256.0,-20.0,4000.0
-4000.0,113.0,12.0,18.0,-1267.0,225.0,68.0,4000.0
-2888.0,28.0,85.0,-615.0,-3014.0,185.0,73.0,4000.0
-4000.0,-174.0,2.0,-1109.0,-3995.0,141.0,-32.0,2876.0
-4000.0,-222.0,19.0,-1347.0,-3066.0,68.0,-146.0,302.0
4000.0,-141.0,40.0,-1329.0,-2139.0,250.0,-123.0,-1891.0
4000.0,-83.0,-21.0,-1240.0,-2741.0,534.0,-28.0,-2876.0
4000.0,-63.0,44.0,-749.0,-2800.0,660.0,30.0,-163.0
4000.0,-121.0,83.0,-702.0,-2729.0,620.0,73.0,3198.0
4000.0,-201.0,92.0,-1012.0,-3066.0,163.0,54.0,4000.0
4000.0,-208.0,2.0,-540.0,-2623.0,-391.0,-6.0,3600.0
-242.0,-24.0,-11.0,-36.0,-1849.0,-680.0,-76.0,543.0
-2892.0,132.0,105.0,93.0,-1044.0,-794.0,-162.0,-1697.0
-3540.0,223.0,163.0,199.0,-87.0,-816.0,-182.0,-3708.0
-4000.0,207.0,119.0,102.0,692.0,-838.0,-226.0,-4000.0
-4000.0,191.0,41.0,155.0,1188.0,-678.0,-308.0,-4000.0
-4000.0,223.0,-6.0,236.0,1124.0,-672.0,-353.0,-4000.0
-3695.0,122.0,-99.0,236.0,1182.0,-722.0,-436.0,-4000.0
-3205.0,45.0,-274.0,297.0,994.0,-373.0,-489.0,-4000.0
-2309.0,-107.0,-759.0,305.0,876.0,89.0,-615.0,-4000.0
-2191.0,-236.0,-739.0,347.0,1443.0,603.0,-741.0,-4000.0
-1487.0,-162.0,-9.0,374.0,1787.0,1033.0,-837.0,-4000.0
-1195.0,-111.0,311.0,382.0,1918.0,1092.0,-854.0,-4000.0
-1019.0,-156.0,630.0,310.0,1488.0,850.0,-797.0,-4000.0
-915.0,-174.0,572.0,310.0,1032.0,329.0,-811.0,-4000.0
-765.0,-181.0,-580.0,317.0,741.0,-156.0,-713.0,-4000.0
-476.0,-114.0,-1321.0,227.0,485.0,-591.0,-555.0,-4000.0
-361.0,-2.0,-466.0,61.0,375.0,-912.0,-363.0,-4000.0
-215.0,6.0,105.0,13.0,282.0,-1112.0,-204.0,-3667.0
-193.0,-21.0,433.0,3.0,495.0,-1265.0,-226.0,-1521.0
-150.0,-141.0,736.0,-263.0,432.0,-1248.0,-294.0,-1274.0
-162.0,-223.0,119.0,-466.0,310.0,-1010.0,-262.0,-1461.0
-31.0,-66.0,-364.0,-387.0,448.0,-548.0,-152.0,-1175.0
12.0,7.0,-430.0,-279.0,118.0,-98.0,-114.0,338.0
147.0,-26.0,-136.0,-213.0,-476.0,107.0,20.0,3014.0
232.0,-83.0,48.0,-194.0,-1737.0,172.0,220.0,2119.0
353.0,-171.0,385.0,-214.0,-3327.0,368.0,282.0,1932.0
465.0,-42.0,621.0,-121.0,-4000.0,667.0,300.0,2442.0
314.0,-133.0,852.0,-109.0,-4000.0,788.0,208.0,2054.0
187.0,-371.0,728.0,-112.0,-4000.0,876.0,-7.0,2419.0
95.0,-568.0,506.0,-103.0,-4000.0,909.0,-86.0,2183.0
119.0,-757.0,-274.0,-90.0,-1998.0,870.0,22.0,2357.0
154.0,-326.0,-1297.0,-14.0,351.0,837.0,110.0,1818.0
232.0,77.0,-1268.0,12.0,1734.0,933.0,78.0,1317.0
250.0,-84.0,-502.0,9.0,2125.0,953.0,28.0,1199.0
216.0,58.0,837.0,33.0,537.0,837.0,85.0,1272.0
249.0,176.0,1423.0,111.0,-2081.0,758.0,124.0,1338.0
264.0,248.0,1414.0,150.0,-3586.0,664.0,123.0,1085.0
240.0,338.0,1233.0,170.0,-4000.0,469.0,116.0,1118.0
257.0,384.0,781.0,174.0,-4000.0,243.0,88.0,1065.0
225.0,418.0,345.0,181.0,-4000.0,81.0,134.0,1411.0
130.0,341.0,100.0,209.0,-4000.0,-127.0,229.0,1698.0
17.0,345.0,-133.0,264.0,-4000.0,-297.0,392.0,1476.0
-92.0,251.0,-379.0,394.0,-1463.0,-340.0,497.0,765.0
-165.0,319.0,-515.0,752.0,1995.0,-476.0,563.0,-185.0
-89.0,485.0,-576.0,858.0,4000.0,-656.0,628.0,-34.0
40.0,443.0,-538.0,459.0,4000.0,-796.0,684.0,135.0
125.0,326.0,-772.0,93.0,4000.0,-802.0,738.0,-659.0
266.0,853.0,-804.0,-357.0,4000.0,-521.0,772.0,-940.0
281.0,1201.0,-607.0,-914.0,4000.0,-32.0,813.0,-947.0
240.0,837.0,-442.0,-1174.0,4000.0,477.0,707.0,-602.0
112.0,477.0,-324.0,-900.0,4000.0,811.0,550.0,-101.0
15.0,60.0,-393.0,-652.0,4000.0,651.0,506.0,-93.0
-12.0,-751.0,-371.0,-226.0,4000.0,261.0,538.0,474.0
-146.0,-1749.0,-151.0,164.0,4000.0,327.0,439.0,927.0
-132.0,-1090.0,-22.0,4.0,4000.0,576.0,217.0,418.0
-23.0,-358.0,-198.0,3.0,4000.0,758.0,54.0,613.0
64.0,-726.0,-259.0,-130.0,4000.0,771.0,-61.0,491.0
269.0,-114.0,-224.0,-359.0,4000.0,537.0,-176.0,-610.0
175.0,-28.0,-275.0,-594.0,4000.0,262.0,-235.0,-918.0
-69.0,-700.0,-122.0,-707.0,1799.0,235.0,-259.0,-579.0
-98.0,-874.0,28.0,-243.0,522.0,491.0,-346.0,-443.0
-13.0,-1030.0,92.0,158.0,-215.0,758.0,-473.0,-150.0
-99.0,-1025.0,63.0,102.0,-2977.0,1114.0,-420.0,275.0
-474.0,-373.0,-303.0,179.0,-4000.0,1482.0,-355.0,-8.0
-49.0,38.0,-375.0,220.0,-4000.0,1734.0,-326.0,-161.0
52.0,-57.0,262.0,204.0,-4000.0,1572.0,-238.0,37.0
-24.0,197.0,564.0,368.0,-4000.0,991.0,-172.0,414.0
228.0,256.0,828.0,503.0,-4000.0,526.0,-60.0,863.0
196.0,290.0,736.0,655.0,-4000.0,183.0,-53.0,914.0
358.0,318.0,382.0,620.0,-4000.0,110.0,-83.0,1012.0
260.0,353.0,-133.0,581.0,-4000.0,480.0,-36.0,1000.0
214.0,477.0,-1223.0,515.0,-4000.0,994.0,-3.0,853.0
139.0,595.0,-1237.0,189.0,-4000.0,953.0,40.0,784.0
214.0,672.0,-563.0,-212.0,-4000.0,467.0,38.0,816.0
226.0,652.0,-688.0,-613.0,-4000.0,-175.0,160.0,590.0
4.0,794.0,-1258.0,-711.0,-4000.0,-771.0,441.0,222.0
-110.0,711.0,-617.0,-384.0,-4000.0,-977.0,543.0,-86.0
-61.0,550.0,356.0,-83.0,-4000.0,-1233.0,571.0,-1322.0
-65.0,391.0,1562.0,-44.0,-4000.0,-1518.0,543.0,-215.0
-113.0,70.0,2327.0,107.0,-4000.0,-1647.0,365.0,2353.0
-61.0,56.0,1939.0,169.0,-3510.0,-1526.0,372.0,1960.0
-87.0,294.0,1609.0,93.0,-2159.0,-1396.0,445.0,1501.0
40.0,355.0,846.0,87.0,-1072.0,-1604.0,559.0,1724.0
145.0,512.0,497.0,4.0,-116.0,-1663.0,603.0,1130.0
192.0,514.0,-116.0,-13.0,967.0,-1550.0,557.0,1281.0
114.0,-179.0,-430.0,122.0,1992.0,-1570.0,539.0,731.0
33.0,-867.0,-248.0,138.0,3102.0,-1636.0,407.0,860.0
-33.0,-1002.0,-409.0,144.0,4000.0,-1717.0,237.0,1411.0
-225.0,-771.0,-495.0,207.0,4000.0,-1782.0,89.0,718.0
-378.0,-761.0,-338.0,139.0,4000.0,-1912.0,-10.0,1272.0
-209.0,-1025.0,-147.0,139.0,4000.0,-1880.0,-91.0,1195.0
-101.0,-830.0,-110.0,168.0,4000.0,-1322.0,-34.0,1142.0
6.0,-195.0,-62.0,145.0,4000.0,-581.0,161.0,1118.0
85.0,-267.0,-203.0,122.0,3916.0,234.0,244.0,551.0
26.0,-371.0,-75.0,113.0,3428.0,877.0,158.0,322.0
56.0,-216.0,-61.0,134.0,3085.0,945.0,-58.0,-508.0
-107.0,-148.0,-36.0,105.0,2451.0,693.0,-203.0,-748.0
-136.0,45.0,-41.0,139.0,2683.0,571.0,-294.0,-1169.0
-82.0,85.0,-225.0,194.0,2630.0,551.0,-322.0,-1762.0
43.0,187.0,-257.0,204.0,2842.0,880.0,-262.0,-2513.0
86.0,147.0,-218.0,207.0,3916.0,1182.0,-273.0,-3268.0
69.0,150.0,-22.0,164.0,4000.0,868.0,-338.0,-3610.0
-85.0,117.0,-51.0,122.0,4000.0,817.0,-489.0,-4000.0
-341.0,28.0,-228.0,71.0,4000.0,888.0,-686.0,-4000.0
-516.0,48.0,-175.0,-32.0,4000.0,693.0,-832.0,-3911.0
-763.0,23.0,172.0,-239.0,4000.0,944.0,-620.0,-3527.0
-368.0,77.0,74.0,-473.0,4000.0,1263.0,145.0,-2670.0
36.0,135.0,-222.0,-637.0,3722.0,961.0,619.0,-1829.0
257.0,117.0,-165.0,-450.0,1971.0,596.0,745.0,-1279.0
888.0,50.0,-96.0,-26.0,187.0,479.0,725.0,-1018.0
833.0,-32.0,-139.0,28.0,-1919.0,480.0,283.0,-911.0
184.0,-69.0,-566.0,42.0,-3920.0,232.0,35.0,-673.0
-313.0,-44.0,-585.0,56.0,-4000.0,126.0,-88.0,-362.0
-1292.0,-74.0,45.0,-32.0,-4000.0,469.0,-152.0,-206.0
-1764.0,-55.0,426.0,-32.0,-4000.0,684.0,-214.0,-104.0
-664.0,-36.0,611.0,-49.0,-4000.0,734.0,-672.0,-120.0
-909.0,-19.0,541.0,-24.0,-4000.0,831.0,-998.0,-71.0
-2142.0,21.0,366.0,-29.0,-4000.0,867.0,-1128.0,195.0
-1495.0,-40.0,278.0,-71.0,-4000.0,811.0,-876.0,438.0
249.0,36.0,172.0,-98.0,-4000.0,921.0,93.0,802.0
2157.0,156.0,288.0,-18.0,-4000.0,476.0,962.0,914.0
4000.0,144.0,385.0,182.0,-4000.0,-316.0,1280.0,1042.0
3835.0,142.0,474.0,236.0,-3988.0,-581.0,681.0,1069.0
2353.0,105.0,345.0,134.0,-2444.0,-773.0,-43.0,1053.0
635.0,102.0,179.0,113.0,-1185.0,-770.0,-697.0,1260.0
-1284.0,111.0,372.0,164.0,200.0,-663.0,-1527.0,1272.0
-1408.0,122.0,318.0,54.0,1456.0,-852.0,-1057.0,1403.0
-771.0,182.0,256.0,-121.0,2354.0,-1135.0,84.0,1728.0
-679.0,221.0,328.0,-32.0,2513.0,-1424.0,687.0,1633.0
-489.0,298.0,331.0,134.0,2254.0,-1570.0,903.0,1306.0
-865.0,319.0,309.0,12.0,1983.0,-1876.0,160.0,1085.0
-1540.0,282.0,272.0,-83.0,1657.0,-2113.0,-711.0,686.0
52.0,225.0,56.0,-224.0,1853.0,-2353.0,-1227.0,434.0
1051.0,168.0,-414.0,-546.0,2231.0,-2142.0,-1943.0,384.0
1559.0,85.0,-415.0,-515.0,2646.0,-1205.0,-1238.0,569.0
1832.0,40.0,-416.0,-523.0,3346.0,-352.0,604.0,831.0
666.0,62.0,-879.0,-874.0,3744.0,455.0,2058.0,874.0
109.0,134.0,-1137.0,-920.0,4000.0,1273.0,1345.0,634.0
-396.0,228.0,-937.0,-659.0,4000.0,1508.0,-294.0,406.0
-227.0,197.0,-568.0,-448.0,4000.0,1148.0,-152.0,554.0
-327.0,149.0,-381.0,-366.0,4000.0,701.0,1060.0,629.0
-323.0,129.0,-291.0,-328.0,4000.0,-10.0,1908.0,634.0
-214.0,99.0,-328.0,-372.0,4000.0,-220.0,1540.0,462.0
-425.0,63.0,-328.0,-377.0,3989.0,-350.0,1474.0,239.0
-428.0,-94.0,-95.0,-38.0,2439.0,78.0,995.0,90.0
-649.0,-141.0,-51.0,360.0,811.0,896.0,-146.0,-270.0
-453.0,-65.0,-32.0,524.0,-483.0,510.0,-897.0,-424.0
-413.0,-23.0,121.0,630.0,-1463.0,6.0,-1783.0,-471.0
-321.0,2.0,136.0,756.0,-2561.0,-208.0,-1832.0,-161.0
-234.0,-25.0,123.0,402.0,-3197.0,-615.0,-920.0,112.0
-378.0,-73.0,77.0,40.0,-3701.0,-650.0,112.0,213.0
-625.0,-131.0,101.0,-91.0,-4000.0,8.0,897.0,499.0
-609.0,-94.0,85.0,-351.0,-4000.0,273.0,1092.0,451.0
-440.0,-25.0,46.0,-344.0,-1098.0,311.0,622.0,409.0
-590.0,8.0,82.0,-324.0,2255.0,391.0,267.0,336.0
-859.0,50.0,88.0,-314.0,2618.0,-383.0,-359.0,201.0
-508.0,12.0,100.0,-261.0,2862.0,-1452.0,-424.0,220.0
241.0,-18.0,83.0,-227.0,3725.0,-1135.0,818.0,456.0
561.0,-59.0,77.0,-103.0,4000.0,-371.0,1695.0,564.0
892.0,-78.0,109.0,106.0,4000.0,-72.0,1972.0,532.0
705.0,-50.0,95.0,105.0,3085.0,1012.0,1788.0,352.0
499.0,-38.0,30.0,127.0,2085.0,1839.0,1483.0,-91.0
379.0,-4.0,-1.0,199.0,1006.0,1547.0,1098.0,-252.0
137.0,-21.0,-36.0,-37.0,58.0,987.0,368.0,-557.0
135.0,-16.0,-45.0,-279.0,-641.0,406.0,-239.0,-798.0
157.0,-12.0,-5.0,-332.0,-1064.0,-293.0,-433.0,-840.0
163.0,-55.0,3.0,-247.0,-1361.0,-224.0,-332.0,-794.0
3.0,-68.0,-36.0,-230.0,-1398.0,1312.0,-489.0,-415.0
34.0,-65.0,-64.0,-84.0,-1174.0,2228.0,-489.0,-6.0
23.0,-46.0,-67.0,75.0,-942.0,1333.0,-120.0,116.0
23.0,-73.0,-45.0,207.0,-621.0,918.0,183.0,28.0
98.0,-52.0,44.0,264.0,-624.0,651.0,283.0,-156.0
109.0,-43.0,43.0,355.0,-486.0,391.0,498.0,-440.0
108.0,-53.0,33.0,533.0,-239.0,636.0,707.0,-753.0
77.0,-29.0,96.0,710.0,-160.0,687.0,259.0,-753.0
103.0,-52.0,107.0,1021.0,4.0,1128.0,-277.0,434.0
90.0,-49.0,63.0,949.0,92.0,1527.0,-267.0,1216.0
82.0,-41.0,39.0,590.0,245.0,1864.0,-216.0,1598.0
12.0,-76.0,35.0,458.0,373.0,1798.0,-355.0,2054.0
-45.0,-97.0,7.0,1013.0,432.0,1539.0,-312.0,973.0
-102.0,-107.0,-17.0,1721.0,603.0,1148.0,-447.0,-824.0
-114.0,-96.0,-44.0,1479.0,811.0,463.0,-708.0,-2412.0
-27.0,-42.0,-34.0,923.0,1097.0,16.0,-797.0,-2376.0
-59.0,5.0,-8.0,384.0,1445.0,-472.0,-817.0,-2849.0
-37.0,24.0,-26.0,-385.0,1800.0,-686.0,-854.0,-3740.0
12.0,52.0,-63.0,-1077.0,1995.0,-676.0,-911.0,-2218.0
-3.0,87.0,-80.0,-1408.0,2160.0,-737.0,-837.0,-750.0
15.0,81.0,-70.0,-1207.0,2321.0,-1550.0,-792.0,700.0
8.0,64.0,-116.0,-978.0,2441.0,-1623.0,-750.0,2416.0
12.0,59.0,-233.0,-1166.0,2491.0,-1568.0,-630.0,1924.0
-39.0,9.0,-308.0,-1506.0,2578.0,-2271.0,-658.0,393.0
-136.0,-57.0,-255.0,-1610.0,2516.0,-2300.0,-771.0,649.0
-119.0,-94.0,-190.0,-1542.0,2451.0,-2089.0,-811.0,649.0
-51.0,-94.0,-190.0,-1206.0,2443.0,-1799.0,-835.0,-1526.0
-1.0,-76.0,-73.0,-906.0,2383.0,-1076.0,-796.0,-3593.0
97.0,-64.0,29.0,-971.0,2320.0,81.0,-802.0,-2927.0
111.0,-32.0,-1.0,-959.0,1995.0,-27.0,-794.0,-1790.0
68.0,0.0,-16.0,-659.0,1666.0,-582.0,-745.0,-1143.0
34.0,-4.0,-170.0,-424.0,1312.0,42.0,-768.0,-46.0
-384.0,33.0,-259.0,-305.0,929.0,266.0,-737.0,200.0
-1218.0,26.0,-182.0,80.0,607.0,132.0,-737.0,1134.0
-1365.0,16.0,-30.0,494.0,415.0,315.0,-876.0,1989.0
-609.0,-8.0,102.0,915.0,255.0,433.0,-1035.0,2118.0
119.0,-21.0,122.0,1021.0,16.0,420.0,-1096.0,1467.0
977.0,0.0,202.0,980.0,-85.0,622.0,-1228.0,1112.0
1500.0,-10.0,190.0,1033.0,-242.0,673.0,-1462.0,1257.0
1572.0,11.0,93.0,1039.0,-379.0,542.0,-1462.0,1085.0
1376.0,16.0,152.0,1241.0,-451.0,1148.0,-802.0,825.0
717.0,70.0,248.0,1166.0,-518.0,2680.0,-204.0,808.0
-117.0,102.0,198.0,1184.0,-574.0,3296.0,36.0,890.0
-974.0,126.0,107.0,1059.0,-616.0,2056.0,253.0,503.0
-1365.0,157.0,93.0,752.0,-667.0,725.0,130.0,550.0
-1282.0,111.0,173.0,806.0,-732.0,-226.0,32.0,556.0
-844.0,126.0,238.0,1110.0,-860.0,-419.0,-216.0,434.0
-654.0,132.0,152.0,1957.0,-928.0,22.0,-927.0,-154.0
-155.0,75.0,118.0,2087.0,-968.0,-345.0,-1063.0,-443.0
543.0,43.0,27.0,980.0,-1137.0,-1005.0,246.0,420.0
896.0,51.0,-70.0,144.0,-1318.0,-489.0,1776.0,389.0
994.0,34.0,-84.0,-633.0,-1446.0,1201.0,2746.0,-123.0
603.0,23.0,-292.0,-1500.0,-1528.0,1214.0,3086.0,165.0
212.0,4.0,-515.0,-2000.0,-1849.0,766.0,2582.0,176.0
-631.0,2.0,-437.0,-1854.0,-2231.0,391.0,2058.0,-156.0
-1931.0,-2.0,-109.0,-1201.0,-2676.0,-55.0,2033.0,-380.0
-2659.0,-38.0,128.0,-1044.0,-3368.0,243.0,2557.0,-604.0
-2387.0,-44.0,205.0,-835.0,-4000.0,-282.0,2631.0,-549.0
-1283.0,-45.0,175.0,-776.0,-4000.0,-257.0,2485.0,-771.0
149.0,-62.0,68.0,-654.0,-4000.0,-576.0,2322.0,-758.0
589.0,-114.0,33.0,-438.0,-4000.0,-1270.0,1605.0,-563.0
1189.0,-98.0,-125.0,-565.0,-4000.0,-1688.0,1060.0,-673.0
2976.0,-125.0,-298.0,-433.0,-4000.0,-2042.0,404.0,-940.0
3508.0,-143.0,-114.0,-225.0,-3929.0,-2091.0,-595.0,-1148.0
2809.0,-100.0,69.0,11.0,1982.0,-2153.0,-1397.0,-1058.0
1507.0,-151.0,45.0,22.0,4000.0,-1912.0,-1796.0,-1213.0
896.0,-159.0,13.0,65.0,4000.0,-1802.0,-2093.0,-1339.0
888.0,-125.0,-4.0,370.0,4000.0,-1682.0,-2740.0,-1959.0
306.0,-76.0,45.0,988.0,4000.0,-1623.0,-2988.0,-3219.0
-8.0,-39.0,98.0,1241.0,4000.0,-1532.0,-2976.0,-1658.0
-784.0,3.0,130.0,712.0,4000.0,-1373.0,-3000.0,203.0
-1585.0,-8.0,231.0,430.0,4000.0,-831.0,-2865.0,290.0
-1782.0,-81.0,256.0,282.0,4000.0,-267.0,-2752.0,1122.0
-1300.0,-98.0,205.0,191.0,4000.0,30.0,-2536.0,890.0
-712.0,-92.0,253.0,-267.0,4000.0,274.0,-2080.0,454.0
-489.0,-72.0,296.0,-623.0,3204.0,183.0,-1718.0,544.0
-549.0,-7.0,318.0,-810.0,562.0,194.0,-1423.0,788.0
-730.0,31.0,306.0,-1024.0,-1292.0,-332.0,-1184.0,1012.0
-671.0,38.0,248.0,-906.0,-2513.0,-771.0,-882.0,1533.0
-518.0,80.0,193.0,-784.0,-3456.0,-831.0,-439.0,1963.0
-280.0,65.0,77.0,-352.0,-4000.0,-940.0,-114.0,2377.0
-106.0,52.0,33.0,-182.0,-4000.0,-620.0,143.0,3134.0
7.0,93.0,4.0,-33.0,-4000.0,347.0,470.0,3031.0
-82.0,64.0,39.0,142.0,-4000.0,953.0,759.0,2937.0
-165.0,44.0,113.0,20.0,-4000.0,683.0,942.0,2689.0
-81.0,3.0,79.0,64.0,-4000.0,1193.0,1137.0,2819.0
40.0,-8.0,24.0,255.0,-4000.0,1452.0,1205.0,2883.0
144.0,-3.0,-32.0,377.0,-3586.0,1033.0,1314.0,1504.0
177.0,-23.0,30.0,264.0,-2537.0,941.0,1540.0,-40.0
216.0,-69.0,48.0,301.0,-1823.0,817.0,1670.0,-1001.0
225.0,-118.0,-36.0,116.0,-1601.0,725.0,1776.0,-1078.0
269.0,-108.0,-39.0,-153.0,-1833.0,467.0,1800.0,-693.0
269.0,-106.0,-34.0,-255.0,-2512.0,376.0,1630.0,-2179.0
259.0,-143.0,-40.0,-171.0,-3315.0,341.0,1345.0,-4000.0
192.0,-134.0,-51.0,98.0,-4000.0,199.0,1208.0,-2828.0
130.0,-104.0,-56.0,285.0,-4000.0,265.0,1143.0,-41.0
147.0,-88.0,-71.0,425.0,-4000.0,403.0,988.0,-419.0
131.0,-64.0,-107.0,329.0,-4000.0,429.0,921.0,-1823.0
104.0,-36.0,-153.0,431.0,-3655.0,61.0,988.0,-1998.0
90.0,-39.0,-168.0,499.0,-2953.0,-159.0,942.0,27.0
80.0,1.0,-161.0,368.0,-2160.0,-472.0,968.0,1462.0
42.0,17.0,-157.0,255.0,-1384.0,-1075.0,1051.0,414.0
25.0,25.0,-185.0,116.0,-892.0,-1896.0,1137.0,867.0
23.0,56.0,-198.0,35.0,-659.0,-3128.0,1202.0,541.0
77.0,80.0,-180.0,-43.0,-534.0,-2788.0,1118.0,629.0
101.0,114.0,-200.0,-56.0,-464.0,104.0,1052.0,798.0
59.0,117.0,-158.0,-84.0,-269.0,2363.0,930.0,491.0
11.0,209.0,-62.0,116.0,-269.0,2680.0,824.0,304.0
-34.0,208.0,-12.0,335.0,-490.0,2824.0,668.0,-390.0
-79.0,152.0,23.0,258.0,-730.0,2824.0,494.0,-748.0
-109.0,160.0,105.0,7.0,-818.0,2888.0,355.0,-1404.0
-94.0,155.0,122.0,-206.0,-812.0,2710.0,309.0,-1339.0
-83.0,124.0,111.0,-293.0,-987.0,2840.0,457.0,-909.0
-35.0,94.0,61.0,-344.0,-1463.0,3018.0,571.0,-750.0
47.0,96.0,10.0,-328.0,-1756.0,2319.0,622.0,-801.0
-81.0,73.0,13.0,-233.0,-2016.0,2190.0,661.0,-931.0
-889.0,87.0,-39.0,-198.0,-2354.0,2084.0,675.0,-1013.0
-1652.0,125.0,-15.0,11.0,-2419.0,1787.0,689.0,-904.0
-1072.0,136.0,-22.0,710.0,-2316.0,1443.0,812.0,-415.0
122.0,156.0,24.0,1254.0,-1918.0,902.0,1033.0,580.0
1104.0,186.0,18.0,832.0,-1915.0,408.0,1125.0,1207.0
1689.0,168.0,-9.0,402.0,-2139.0,-122.0,1202.0,1704.0
1625.0,146.0,8.0,604.0,-1963.0,-516.0,1280.0,2107.0
1246.0,164.0,0.0,711.0,-1552.0,-731.0,1214.0,1623.0
733.0,172.0,10.0,39.0,-404.0,-696.0,1184.0,881.0
-170.0,162.0,-31.0,-979.0,668.0,-394.0,1483.0,239.0
-1105.0,128.0,-30.0,-1557.0,1201.0,-392.0,2020.0,87.0
-1267.0,20.0,2.0,-1813.0,1722.0,-797.0,2048.0,-150.0
-1023.0,-46.0,61.0,-1536.0,1958.0,-1135.0,1825.0,120.0
-457.0,-21.0,43.0,-1075.0,2100.0,-1599.0,1532.0,241.0
235.0,55.0,-4.0,-502.0,2035.0,-2250.0,1033.0,203.0
342.0,70.0,-15.0,2.0,1824.0,-3657.0,637.0,686.0
371.0,-50.0,-30.0,272.0,1474.0,-4000.0,374.0,798.0
680.0,-196.0,-20.0,419.0,1128.0,-3894.0,262.0,503.0
876.0,-292.0,-57.0,504.0,758.0,-1452.0,-159.0,242.0
738.0,-234.0,-104.0,565.0,471.0,-1422.0,-817.0,51.0
382.0,-127.0,-92.0,402.0,338.0,-1251.0,-1527.0,-602.0
-190.0,-50.0,-76.0,386.0,222.0,-345.0,-2536.0,-734.0
-1153.0,24.0,-88.0,377.0,253.0,-705.0,-3261.0,-753.0
-1921.0,60.0,-88.0,433.0,47.0,-663.0,-3766.0,-724.0
-1039.0,95.0,-56.0,568.0,-167.0,-247.0,-4000.0,-522.0
-493.0,87.0,-50.0,484.0,-174.0,246.0,-4000.0,-599.0
-146.0,108.0,-99.0,248.0,570.0,994.0,-4000.0,-317.0
699.0,108.0,-91.0,209.0,2428.0,1344.0,-3989.0,213.0
574.0,99.0,-87.0,165.0,4000.0,1799.0,-3733.0,361.0
680.0,95.0,-65.0,-37.0,4000.0,2125.0,-3261.0,-312.0
538.0,66.0,-13.0,-326.0,4000.0,2353.0,-2675.0,-537.0
212.0,49.0,0.0,-497.0,4000.0,2353.0,-1990.0,-166.0
-34.0,7.0,29.0,-523.0,4000.0,1917.0,-1318.0,-446.0
-109.0,-34.0,69.0,-152.0,4000.0,1409.0,-882.0,-718.0
-112.0,-69.0,98.0,490.0,4000.0,860.0,-534.0,3.0
-243.0,-69.0,71.0,581.0,4000.0,673.0,-355.0,544.0
-392.0,-69.0,65.0,568.0,4000.0,608.0,-221.0,-49.0
-712.0,-88.0,38.0,598.0,4000.0,376.0,-9.0,-506.0
-535.0,-110.0,-30.0,-188.0,4000.0,203.0,232.0,588.0
-312.0,-83.0,-133.0,-888.0,4000.0,8.0,514.0,1053.0
-436.0,-48.0,-255.0,-1089.0,4000.0,-371.0,685.0,804.0
-654.0,-2.0,-281.0,-1406.0,2711.0,-729.0,883.0,882.0
-457.0,54.0,-206.0,-1486.0,1003.0,-1032.0,1136.0,784.0
-1000.0,13.0,-119.0,-1419.0,-1423.0,-1227.0,1410.0,1057.0
-873.0,-42.0,-50.0,-1240.0,-3642.0,-1242.0,1202.0,603.0
1038.0,-108.0,-16.0,-935.0,-4000.0,-1127.0,238.0,69.0
1737.0,-169.0,18.0,-511.0,-4000.0,-900.0,-298.0,-442.0
1820.0,-156.0,71.0,-104.0,-4000.0,-707.0,30.0,-928.0
776.0,-144.0,69.0,34.0,-4000.0,-548.0,529.0,-1213.0
-757.0,-143.0,43.0,211.0,-4000.0,-505.0,889.0,-1511.0
-742.0,-95.0,-8.0,459.0,-4000.0,-394.0,888.0,-1540.0
-257.0,-131.0,-10.0,603.0,-4000.0,-310.0,753.0,-1632.0
162.0,-179.0,-4.0,563.0,-4000.0,-277.0,693.0,-1612.0
994.0,-253.0,-34.0,303.0,-4000.0,-268.0,550.0,-1593.0
1427.0,-282.0,-41.0,142.0,-4000.0,-272.0,496.0,-1326.0
954.0,-214.0,-5.0,-22.0,-4000.0,-39.0,486.0,-1200.0
717.0,-228.0,10.0,-133.0,-4000.0,260.0,474.0,-1115.0
-21.0,-129.0,-14.0,-173.0,-4000.0,550.0,414.0,-883.0
-354.0,-21.0,2.0,-49.0,-4000.0,815.0,416.0,-545.0
-518.0,-10.0,1.0,150.0,-4000.0,1026.0,394.0,-129.0
-866.0,40.0,-26.0,245.0,-4000.0,1051.0,349.0,230.0
-1195.0,46.0,1.0,524.0,-4000.0,887.0,311.0,629.0
-757.0,27.0,55.0,832.0,-4000.0,713.0,246.0,980.0
-90.0,33.0,120.0,1045.0,-4000.0,563.0,281.0,1195.0
36.0,78.0,152.0,1015.0,-3521.0,466.0,184.0,1338.0
626.0,99.0,118.0,972.0,-3213.0,396.0,61.0,1533.0
660.0,114.0,75.0,952.0,-2676.0,278.0,-26.0,1595.0
-654.0,121.0,-54.0,548.0,-1918.0,67.0,-262.0,1574.0
-3180.0,140.0,-178.0,116.0,-1137.0,-110.0,-643.0,1462.0
-1931.0,199.0,-252.0,-422.0,-616.0,-221.0,-946.0,1192.0
1181.0,233.0,-274.0,-556.0,-147.0,-58.0,-1032.0,955.0
2219.0,212.0,-128.0,-26.0,562.0,311.0,-966.0,890.0
3236.0,222.0,81.0,-179.0,1722.0,683.0,-1063.0,825.0
2874.0,225.0,177.0,-594.0,2551.0,685.0,-1227.0,648.0
2663.0,167.0,107.0,-784.0,2813.0,576.0,-1038.0,409.0
1702.0,108.0,70.0,-810.0,3167.0,622.0,-882.0,87.0
673.0,65.0,8.0,-576.0,3346.0,61.0,-686.0,-78.0
-106.0,58.0,-99.0,-498.0,3204.0,-438.0,-555.0,-134.0
-1072.0,43.0,-144.0,-234.0,3085.0,-476.0,-565.0,-332.0
-1266.0,77.0,-71.0,-10.0,3204.0,-643.0,-344.0,-543.0
-2061.0,163.0,-84.0,133.0,3143.0,-378.0,-54.0,-606.0
-2467.0,179.0,-24.0,377.0,3916.0,-154.0,120.0,-562.0
-2810.0,77.0,35.0,272.0,4000.0,-141.0,51.0,-456.0
-3530.0,-88.0,-38.0,67.0,4000.0,-28.0,124.0,-440.0
-4000.0,-174.0,13.0,-13.0,4000.0,-62.0,225.0,-590.0
-2516.0,-158.0,38.0,-66.0,3725.0,-182.0,368.0,-650.0
-163.0,-91.0,125.0,-54.0,2864.0,-411.0,613.0,-599.0
1161.0,18.0,153.0,-66.0,2439.0,-517.0,655.0,-427.0
1297.0,-10.0,125.0,-68.0,2057.0,-613.0,726.0,-177.0
790.0,-59.0,109.0,56.0,2425.0,-706.0,883.0,33.0
1356.0,9.0,133.0,447.0,3267.0,-354.0,1341.0,153.0
1949.0,10.0,121.0,630.0,3346.0,37.0,1602.0,50.0
1702.0,-22.0,100.0,335.0,2569.0,183.0,1214.0,-85.0
1025.0,-8.0,150.0,182.0,1574.0,479.0,1353.0,-49.0
424.0,70.0,124.0,2.0,1148.0,127.0,1854.0,-3.0
265.0,84.0,158.0,-93.0,1118.0,-1747.0,1522.0,136.0
102.0,-16.0,189.0,-116.0,1352.0,-3659.0,441.0,294.0
-113.0,-59.0,207.0,-222.0,1409.0,-2400.0,-489.0,329.0
-50.0,-31.0,237.0,-149.0,1279.0,194.0,-224.0,491.0
-14.0,34.0,268.0,-67.0,1482.0,693.0,738.0,876.0
102.0,46.0,345.0,-6.0,1733.0,683.0,1255.0,1334.0
114.0,28.0,343.0,71.0,1539.0,-371.0,687.0,1598.0
131.0,46.0,228.0,29.0,967.0,-1446.0,274.0,1521.0
187.0,49.0,107.0,-182.0,432.0,-182.0,1418.0,1195.0
186.0,34.0,12.0,-346.0,-96.0,-459.0,2318.0,961.0
180.0,28.0,-308.0,-745.0,-535.0,-1330.0,1483.0,914.0
92.0,28.0,-603.0,-822.0,-797.0,333.0,624.0,1112.0
113.0,35.0,-507.0,-237.0,-1491.0,-110.0,433.0,1388.0
121.0,70.0,-224.0,484.0,-1768.0,-310.0,-84.0,1468.0
96.0,66.0,-193.0,882.0,-681.0,693.0,-442.0,1533.0
26.0,4.0,-222.0,663.0,15.0,-77.0,-555.0,1727.0
66.0,-43.0,-104.0,199.0,349.0,411.0,-791.0,1704.0
54.0,-83.0,-131.0,-308.0,355.0,866.0,-399.0,1399.0
-46.0,-59.0,-125.0,-515.0,-537.0,693.0,-817.0,1130.0
-144.0,-111.0,-125.0,-711.0,-1292.0,858.0,-485.0,1221.0
-1137.0,-174.0,-234.0,-784.0,-1398.0,-779.0,1183.0,1762.0
-2570.0,-103.0,-120.0,-639.0,-659.0,-2209.0,995.0,2094.0
-1031.0,-109.0,105.0,-521.0,249.0,-358.0,-65.0,2107.0
1364.0,-113.0,121.0,-106.0,1721.0,50.0,-845.0,2042.0
1866.0,-131.0,99.0,297.0,2178.0,-685.0,-1514.0,1834.0
2258.0,-176.0,150.0,382.0,1279.0,-26.0,-1431.0,1392.0
1319.0,-159.0,266.0,459.0,432.0,1062.0,-182.0,788.0
660.0,-167.0,476.0,799.0,-174.0,1970.0,-1266.0,236.0
139.0,-131.0,541.0,915.0,745.0,176.0,-3065.0,-166.0
-331.0,-53.0,465.0,850.0,2160.0,-602.0,-1005.0,-449.0
-193.0,-35.0,447.0,832.0,2947.0,856.0,-306.0,-723.0
-376.0,-27.0,437.0,533.0,2972.0,671.0,-976.0,-1018.0
-300.0,21.0,345.0,-16.0,3020.0,-1177.0,-355.0,-1404.0
-441.0,62.0,-126.0,-700.0,3102.0,-568.0,3205.0,-1856.0
-439.0,67.0,-774.0,-885.0,3232.0,339.0,4000.0,-2166.0
-457.0,75.0,-694.0,-371.0,3541.0,1059.0,2061.0,-2567.0
-323.0,95.0,-14.0,92.0,3541.0,3072.0,-1519.0,-3349.0
-201.0,106.0,24.0,71.0,4000.0,3539.0,-3455.0,-4000.0
-157.0,86.0,-85.0,-28.0,4000.0,3463.0,-2186.0,-4000.0
-131.0,72.0,20.0,-167.0,3020.0,1704.0,-1637.0,-4000.0
-168.0,38.0,-519.0,-589.0,-812.0,441.0,-2080.0,-4000.0
-136.0,27.0,-631.0,-389.0,-4000.0,1287.0,-136.0,-3708.0
-193.0,-11.0,-422.0,62.0,-4000.0,880.0,2761.0,-4000.0
-178.0,-57.0,-409.0,-107.0,-4000.0,-1115.0,4000.0,-4000.0
-195.0,-34.0,-11.0,124.0,-4000.0,-3039.0,3542.0,-4000.0
-82.0,24.0,52.0,512.0,-4000.0,-2338.0,2973.0,-4000.0
-53.0,56.0,-73.0,482.0,-4000.0,-1356.0,3411.0,-4000.0
-77.0,54.0,-242.0,255.0,-4000.0,-104.0,4000.0,-4000.0
-63.0,71.0,-217.0,-458.0,-4000.0,2060.0,3723.0,-4000.0
-73.0,-27.0,-11.0,-1276.0,-139.0,1994.0,2746.0,-4000.0
-118.0,-85.0,-255.0,-1854.0,2630.0,-90.0,1657.0,-4000.0
-124.0,-40.0,-385.0,-1919.0,4000.0,-1496.0,-359.0,-4000.0
-16.0,15.0,-541.0,-1329.0,4000.0,-2041.0,-1917.0,-3517.0
45.0,87.0,-490.0,-841.0,4000.0,-2595.0,-2752.0,-1148.0
54.0,117.0,-185.0,-639.0,2019.0,-3311.0,-3882.0,1012.0
17.0,147.0,270.0,-67.0,1378.0,-3387.0,-4000.0,2677.0
23.0,117.0,736.0,733.0,2569.0,-2750.0,-4000.0,4000.0
77.0,113.0,671.0,836.0,3772.0,-2558.0,-2159.0,4000.0
101.0,83.0,430.0,909.0,4000.0,-2447.0,-2388.0,4000.0
24.0,-3.0,431.0,1163.0,4000.0,-2432.0,-1383.0,4000.0
-53.0,-84.0,572.0,1098.0,4000.0,-344.0,-50.0,4000.0
-143.0,-287.0,523.0,895.0,4000.0,2512.0,2514.0,4000.0
-266.0,-440.0,450.0,590.0,4000.0,3231.0,4000.0,4000.0
-240.0,-310.0,504.0,598.0,4000.0,2710.0,4000.0,4000.0
-85.0,-139.0,523.0,687.0,4000.0,425.0,1418.0,4000.0
77.0,-122.0,476.0,777.0,3680.0,-2287.0,-1441.0,4000.0
119.0,-108.0,95.0,548.0,2955.0,-2575.0,-790.0,4000.0
134.0,4.0,-132.0,325.0,2711.0,-2338.0,-982.0,4000.0
109.0,28.0,-203.0,54.0,2378.0,-2534.0,-1767.0,4000.0
82.0,85.0,-433.0,-328.0,1140.0,-1070.0,-1917.0,4000.0
71.0,282.0,-576.0,-387.0,-523.0,608.0,-1665.0,4000.0
28.0,363.0,-906.0,-454.0,-1918.0,1901.0,-3184.0,4000.0
77.0,316.0,-833.0,-310.0,-3655.0,1864.0,-4000.0,4000.0
82.0,294.0,-645.0,-332.0,-4000.0,681.0,-4000.0,4000.0
78.0,282.0,-580.0,-437.0,-4000.0,526.0,-3733.0,1272.0
102.0,225.0,-458.0,-383.0,-4000.0,1417.0,-2385.0,-4000.0
104.0,117.0,-425.0,-224.0,-4000.0,3018.0,-2186.0,-4000.0
89.0,21.0,-328.0,30.0,-4000.0,3018.0,-2093.0,-4000.0
53.0,-16.0,-363.0,283.0,-4000.0,3395.0,-3390.0,-4000.0
42.0,80.0,-151.0,580.0,-4000.0,3528.0,-4000.0,-4000.0
111.0,37.0,109.0,472.0,-4000.0,2034.0,-2495.0,-4000.0
122.0,-77.0,268.0,447.0,-4000.0,1466.0,-1042.0,-4000.0
-19.0,-201.0,299.0,425.0,-4000.0,1329.0,619.0,-4000.0
-163.0,-575.0,295.0,-63.0,-3321.0,1703.0,2684.0,-4000.0
-219.0,-692.0,317.0,-160.0,-103.0,2031.0,3494.0,-4000.0
-256.0,-727.0,376.0,-175.0,4000.0,1482.0,1274.0,-4000.0
-208.0,-521.0,476.0,-328.0,4000.0,1417.0,259.0,-4000.0
-43.0,-182.0,467.0,-250.0,4000.0,2438.0,1314.0,-4000.0
19.0,-31.0,449.0,-182.0,4000.0,3296.0,1630.0,-4000.0
96.0,241.0,364.0,-206.0,4000.0,4000.0,2290.0,-4000.0
82.0,631.0,268.0,33.0,4000.0,4000.0,3007.0,-4000.0
36.0,1258.0,376.0,980.0,4000.0,2905.0,3216.0,-4000.0
72.0,1506.0,659.0,1367.0,4000.0,1929.0,2696.0,-4000.0
15.0,1071.0,450.0,968.0,4000.0,1344.0,2225.0,-4000.0
-193.0,354.0,166.0,168.0,4000.0,660.0,1825.0,-4000.0
-388.0,-265.0,77.0,-812.0,4000.0,-399.0,1931.0,-4000.0
-350.0,-600.0,201.0,-1231.0,4000.0,-2185.0,1202.0,-4000.0
-229.0,-810.0,425.0,-1028.0,4000.0,-2184.0,177.0,-4000.0
-172.0,-1090.0,76.0,-768.0,3297.0,-780.0,-6.0,-123.0
-118.0,-1415.0,-519.0,-690.0,-215.0,-378.0,-680.0,4000.0
-62.0,-1552.0,-596.0,-446.0,-3995.0,-485.0,-435.0,4000.0
-4.0,-1225.0,-670.0,-743.0,-4000.0,-810.0,642.0,4000.0
53.0,-633.0,-1518.0,-1427.0,-4000.0,-1290.0,1605.0,4000.0
30.0,-364.0,-2241.0,-1484.0,-4000.0,-1650.0,1605.0,4000.0
-27.0,-414.0,-1974.0,-696.0,-4000.0,-2642.0,613.0,4000.0
-6.0,-235.0,-1667.0,-238.0,-4000.0,-3981.0,-363.0,4000.0
55.0,-161.0,-1667.0,-155.0,-4000.0,-3317.0,-1519.0,4000.0
65.0,-310.0,-190.0,288.0,-2806.0,-1831.0,1.0,4000.0
79.0,-160.0,1184.0,476.0,-3689.0,-773.0,1454.0,4000.0
149.0,-168.0,1745.0,598.0,-4000.0,-1115.0,136.0,4000.0
197.0,33.0,2083.0,571.0,-4000.0,-1587.0,667.0,4000.0
235.0,343.0,1770.0,376.0,-4000.0,-881.0,2177.0,4000.0
256.0,761.0,1430.0,347.0,-4000.0,-1005.0,1984.0,4000.0
256.0,1526.0,801.0,490.0,-4000.0,-1532.0,1605.0,4000.0
328.0,2010.0,-129.0,490.0,-4000.0,-2293.0,2361.0,4000.0
330.0,2091.0,-906.0,388.0,-4000.0,-3128.0,2647.0,4000.0
269.0,1948.0,-693.0,182.0,-4000.0,-3387.0,2908.0,4000.0
267.0,1713.0,-607.0,-62.0,-4000.0,-2403.0,2297.0,4000.0
174.0,2429.0,-1630.0,-42.0,-4000.0,-409.0,1581.0,4000.0
50.0,4000.0,-4000.0,-61.0,-4000.0,1329.0,1228.0,4000.0
-172.0,4000.0,-4000.0,-48.0,-4000.0,2031.0,433.0,4000.0
-317.0,4000.0,-4000.0,59.0,-4000.0,2485.0,362.0,4000.0
-120.0,4000.0,1939.0,221.0,-4000.0,766.0,120.0,4000.0
-56.0,2986.0,4000.0,207.0,-4000.0,-1746.0,-91.0,4000.0
-262.0,-1017.0,4000.0,264.0,-3148.0,-3698.0,-582.0,3404.0
-346.0,-4000.0,4000.0,262.0,-1731.0,-3685.0,-410.0,760.0
-321.0,-4000.0,4000.0,132.0,-593.0,1799.0,-241.0,-1526.0
-311.0,-4000.0,-1831.0,-40.0,635.0,4000.0,-1141.0,-1774.0
-160.0,-4000.0,-4000.0,-251.0,1995.0,3902.0,-967.0,-1672.0
-280.0,-4000.0,-3795.0,-186.0,2776.0,1604.0,-327.0,-1839.0
-589.0,-4000.0,-2953.0,-149.0,2683.0,3231.0,-644.0,-2296.0
-361.0,-4000.0,1871.0,-46.0,2320.0,4000.0,-1332.0,-3414.0
37.0,-3818.0,4000.0,28.0,1865.0,2550.0,-1374.0,-4000.0
212.0,-1735.0,4000.0,16.0,1579.0,1508.0,-1264.0,-4000.0
241.0,109.0,4000.0,21.0,1287.0,1468.0,-1507.0,-4000.0
208.0,1843.0,4000.0,-1.0,947.0,1279.0,-1462.0,-4000.0
248.0,3323.0,2616.0,51.0,428.0,-459.0,-1500.0,-4000.0
192.0,2352.0,517.0,118.0,-220.0,-1734.0,-1462.0,-4000.0
161.0,2222.0,-425.0,199.0,-1142.0,-3364.0,-1551.0,-4000.0
165.0,2417.0,-1084.0,252.0,-1918.0,-2156.0,-1635.0,-4000.0
100.0,2689.0,-2173.0,290.0,-2572.0,-1075.0,-1587.0,-4000.0
61.0,2661.0,-4000.0,329.0,-3197.0,-1356.0,-1448.0,-4000.0
77.0,3246.0,-4000.0,337.0,-3521.0,-770.0,-1422.0,-4000.0
122.0,4000.0,-4000.0,298.0,-3575.0,-1041.0,-1422.0,-4000.0
199.0,4000.0,-4000.0,309.0,-3315.0,802.0,-1206.0,-4000.0
293.0,4000.0,-4000.0,329.0,-3079.0,3148.0,-1030.0,-4000.0
408.0,4000.0,-1520.0,191.0,-2595.0,4000.0,-796.0,-4000.0
528.0,3978.0,-4000.0,-25.0,-2029.0,2320.0,-772.0,-4000.0
508.0,4000.0,-4000.0,-122.0,-1398.0,-2921.0,-607.0,-3992.0
371.0,4000.0,-3437.0,-152.0,-148.0,-4000.0,-363.0,-2800.0
155.0,4000.0,-798.0,-370.0,1995.0,-4000.0,-174.0,-2230.0
-108.0,4000.0,1939.0,-715.0,4000.0,-4000.0,-127.0,-2302.0
-441.0,4000.0,4000.0,-920.0,4000.0,-2026.0,-137.0,-2016.0
-620.0,4000.0,4000.0,-745.0,4000.0,2775.0,-8.0,-1324.0
-480.0,1766.0,4000.0,-332.0,4000.0,3914.0,-77.0,-996.0
-428.0,-4000.0,4000.0,-30.0,4000.0,2512.0,4.0,-685.0
-331.0,-4000.0,4000.0,16.0,4000.0,-489.0,120.0,0.0
-186.0,-4000.0,4000.0,-14.0,4000.0,180.0,185.0,249.0
-181.0,-4000.0,-1321.0,-16.0,4000.0,-224.0,236.0,955.0
-37.0,-4000.0,-4000.0,-47.0,4000.0,-1847.0,234.0,881.0
126.0,-4000.0,-4000.0,104.0,4000.0,870.0,243.0,-730.0
-2.0,-4000.0,826.0,138.0,4000.0,4000.0,172.0,-687.0
30.0,-2627.0,4000.0,-6.0,4000.0,4000.0,164.0,-587.0
277.0,-2015.0,4000.0,-428.0,4000.0,2710.0,147.0,-1790.0
392.0,-2109.0,3119.0,-684.0,3859.0,1071.0,203.0,-840.0
285.0,-326.0,-154.0,-141.0,414.0,888.0,254.0,1450.0
180.0,982.0,-1682.0,210.0,-2405.0,-19.0,188.0,1727.0
-37.0,1461.0,-3136.0,215.0,-4000.0,1140.0,123.0,2354.0
-412.0,-108.0,-4000.0,240.0,-4000.0,409.0,120.0,1411.0
-566.0,-761.0,-4000.0,370.0,-4000.0,-602.0,143.0,938.0
-368.0,-444.0,-4000.0,509.0,-4000.0,293.0,148.0,2624.0
65.0,1136.0,-4000.0,232.0,-4000.0,1734.0,213.0,1986.0
199.0,4000.0,-4000.0,65.0,-4000.0,2377.0,445.0,1986.0
212.0,4000.0,-4000.0,138.0,-4000.0,2223.0,416.0,1521.0
-4.0,4000.0,-4000.0,155.0,-4000.0,1901.0,321.0,1568.0
-157.0,4000.0,-4000.0,81.0,-4000.0,510.0,407.0,1660.0
-129.0,4000.0,-4000.0,-143.0,-4000.0,-1833.0,455.0,853.0
-274.0,1461.0,-4000.0,-302.0,-4000.0,-3657.0,571.0,102.0
-292.0,-2426.0,-4000.0,-366.0,-4000.0,-4000.0,535.0,-818.0
-172.0,-3818.0,-4000.0,-202.0,-4000.0,-4000.0,478.0,-883.0
-47.0,-2969.0,-4000.0,-214.0,-4000.0,-3453.0,526.0,-2165.0
-13.0,-2373.0,-4000.0,-271.0,-4000.0,-1876.0,597.0,-2605.0
96.0,-743.0,498.0,-328.0,-4000.0,-613.0,637.0,-4000.0
70.0,3645.0,4000.0,-433.0,-4000.0,480.0,748.0,-4000.0
51.0,4000.0,4000.0,-486.0,-4000.0,-1.0,838.0,-4000.0
24.0,4000.0,4000.0,-659.0,-4000.0,-1568.0,802.0,-4000.0
-33.0,4000.0,4000.0,-580.0,-4000.0,-1605.0,791.0,-4000.0
-185.0,3633.0,4000.0,-293.0,-4000.0,896.0,738.0,-4000.0
-468.0,189.0,4000.0,-2.0,-4000.0,2189.0,481.0,-3219.0
-589.0,-3343.0,4000.0,272.0,-4000.0,1929.0,120.0,-1642.0
-679.0,-4000.0,3837.0,451.0,-4000.0,2627.0,93.0,-2277.0
-566.0,-4000.0,-1700.0,402.0,-4000.0,3345.0,50.0,-4000.0
-228.0,-4000.0,-4000.0,429.0,-4000.0,1786.0,75.0,-4000.0
114.0,-4000.0,-4000.0,598.0,-4000.0,-867.0,225.0,-4000.0
499.0,-1415.0,-4000.0,603.0,-4000.0,-135.0,5.0,-4000.0
583.0,1552.0,-4000.0,402.0,-4000.0,856.0,-239.0,-3824.0
306.0,4000.0,-4000.0,38.0,-4000.0,-1168.0,-424.0,-1888.0
334.0,4000.0,-4000.0,-52.0,4000.0,110.0,-392.0,-540.0
379.0,3470.0,-4000.0,347.0,4000.0,1182.0,-262.0,-803.0
308.0,1319.0,-4000.0,613.0,4000.0,351.0,-123.0,322.0
382.0,-1627.0,-4000.0,472.0,4000.0,-276.0,-30.0,3199.0
351.0,-3979.0,-4000.0,394.0,4000.0,-2725.0,-94.0,4000.0
277.0,-3459.0,-4000.0,290.0,4000.0,-2838.0,-91.0,4000.0
187.0,-3343.0,-4000.0,45.0,4000.0,-1850.0,18.0,4000.0
212.0,-2334.0,-4000.0,-259.0,4000.0,-982.0,-19.0,2705.0
328.0,-440.0,-4000.0,-532.0,4000.0,563.0,-123.0,-3759.0
238.0,607.0,-4000.0,-544.0,4000.0,1395.0,-90.0,-4000.0
-142.0,1323.0,1936.0,-481.0,4000.0,1722.0,60.0,981.0
-388.0,1648.0,4000.0,-498.0,4000.0,756.0,-326.0,4000.0
-350.0,2039.0,4000.0,-433.0,4000.0,1148.0,-941.0,4000.0
-211.0,2726.0,4000.0,-375.0,4000.0,3770.0,-1123.0,2807.0
17.0,3452.0,4000.0,-271.0,1409.0,4000.0,-1252.0,1003.0
199.0,4000.0,4000.0,-153.0,190.0,2550.0,-685.0,2705.0
293.0,4000.0,4000.0,-89.0,-1600.0,-836.0,-269.0,2835.0
216.0,4000.0,4000.0,4.0,-2094.0,-676.0,-244.0,3601.0
36.0,4000.0,4000.0,109.0,-2935.0,-1452.0,-110.0,4000.0
-178.0,3775.0,-1072.0,276.0,-3582.0,-3975.0,-533.0,4000.0
-279.0,1558.0,-4000.0,366.0,-4000.0,-2974.0,-1914.0,4000.0
-260.0,1974.0,-4000.0,377.0,-4000.0,-529.0,-2740.0,4000.0
-111.0,1488.0,-4000.0,370.0,-4000.0,145.0,-1357.0,3861.0
-12.0,-1138.0,-4000.0,425.0,-4000.0,-1585.0,528.0,3520.0
-256.0,-4000.0,-4000.0,539.0,-4000.0,-2185.0,1548.0,3275.0
-320.0,-4000.0,-129.0,504.0,-4000.0,1474.0,1402.0,2872.0
-51.0,-4000.0,4000.0,370.0,-4000.0,2568.0,543.0,1989.0
227.0,-4000.0,4000.0,337.0,-4000.0,1579.0,-19.0,1793.0
228.0,-4000.0,4000.0,310.0,-4000.0,-314.0,-489.0,1403.0
-31.0,-3935.0,4000.0,90.0,-4000.0,-2014.0,-363.0,1338.0
-82.0,-2686.0,4000.0,-136.0,-4000.0,-515.0,297.0,1399.0
-211.0,-1718.0,1235.0,-263.0,-4000.0,-188.0,942.0,1411.0
-457.0,-1257.0,-3862.0,-384.0,-4000.0,1142.0,1711.0,863.0
-584.0,-1132.0,-4000.0,-336.0,-4000.0,1525.0,1410.0,491.0
-518.0,-937.0,-4000.0,-143.0,-4000.0,725.0,219.0,324.0
-360.0,-1783.0,-4000.0,-35.0,-4000.0,1409.0,-12.0,340.0
-292.0,-1867.0,-4000.0,-79.0,-4000.0,-80.0,714.0,532.0
-90.0,-1995.0,-4000.0,-42.0,-4000.0,-2707.0,1592.0,530.0
133.0,-960.0,-4000.0,40.0,-4000.0,-2315.0,1645.0,212.0
245.0,615.0,-4000.0,38.0,-3883.0,1077.0,259.0,182.0
325.0,1063.0,-4000.0,-6.0,-3391.0,54.0,-363.0,731.0
212.0,2036.0,-4000.0,-151.0,-3014.0,-2286.0,36.0,882.0
155.0,2298.0,-4000.0,-236.0,-2595.0,-1486.0,-110.0,1307.0
250.0,2429.0,-4000.0,-214.0,-2454.0,1904.0,449.0,1727.0
303.0,2997.0,-4000.0,-397.0,-2170.0,3460.0,1019.0,1793.0
328.0,4000.0,-4000.0,-676.0,-2057.0,1719.0,1039.0,1769.0
298.0,4000.0,-4000.0,-829.0,-1797.0,1134.0,1084.0,1793.0
361.0,2559.0,-2851.0,-766.0,-1626.0,-920.0,106.0,1932.0
293.0,1583.0,2017.0,-520.0,-1534.0,-1396.0,-750.0,2172.0
93.0,489.0,4000.0,-437.0,-1463.0,-1135.0,-89.0,2422.0
8.0,-1005.0,4000.0,-401.0,-1463.0,-3572.0,548.0,2498.0
-67.0,-1257.0,4000.0,-285.0,-1433.0,-3243.0,-43.0,2544.0
-277.0,-1402.0,4000.0,-133.0,-1239.0,-836.0,-774.0,2313.0
-541.0,-1840.0,4000.0,-33.0,-1202.0,2230.0,-849.0,1848.0
-483.0,-1643.0,1053.0,-112.0,-1463.0,4000.0,-902.0,1468.0
-378.0,-619.0,-3030.0,-44.0,-1701.0,3426.0,-711.0,817.0
-148.0,194.0,-1602.0,158.0,-2018.0,3345.0,-373.0,153.0
-19.0,298.0,-2383.0,262.0,-2318.0,394.0,-448.0,-431.0
-67.0,240.0,-283.0,402.0,-2507.0,-1747.0,-129.0,-908.0
-1.0,601.0,152.0,563.0,-2598.0,-611.0,142.0,-889.0
-215.0,817.0,1237.0,590.0,-2454.0,-458.0,181.0,-953.0
-207.0,1120.0,2730.0,496.0,-1882.0,1508.0,280.0,-1180.0
-43.0,1258.0,1900.0,351.0,-1489.0,2682.0,274.0,-1200.0
30.0,1193.0,976.0,313.0,-812.0,1026.0,211.0,-954.0
169.0,1063.0,-1258.0,329.0,302.0,-481.0,38.0,-620.0
99.0,453.0,-1862.0,269.0,1201.0,506.0,-210.0,-669.0
38.0,-301.0,-3537.0,292.0,1970.0,-297.0,-542.0,-345.0
5.0,-1040.0,-4000.0,329.0,2485.0,-3798.0,-603.0,12.0
232.0,-923.0,-4000.0,276.0,3297.0,-3246.0,-927.0,-267.0
408.0,-334.0,-4000.0,365.0,3916.0,-917.0,-1527.0,-252.0
227.0,-631.0,-4000.0,329.0,4000.0,-289.0,-1637.0,-317.0
215.0,-1200.0,-4000.0,103.0,4000.0,339.0,-1234.0,-818.0
114.0,-1155.0,-155.0,-54.0,4000.0,1344.0,-998.0,-1013.0
-142.0,-1220.0,2746.0,-123.0,4000.0,1691.0,-1168.0,-1055.0
-388.0,-1627.0,4000.0,-124.0,3527.0,1657.0,-1054.0,-1274.0
-366.0,-946.0,4000.0,-89.0,3102.0,1157.0,-1197.0,-1430.0
-424.0,-556.0,3772.0,-56.0,2748.0,947.0,-1767.0,-1756.0
-388.0,-568.0,158.0,-141.0,2491.0,107.0,-1250.0,-1526.0
-174.0,-314.0,-446.0,-175.0,2425.0,-1248.0,6.0,-1143.0
-221.0,-289.0,878.0,-271.0,2425.0,-945.0,433.0,-1256.0
-32.0,20.0,642.0,-397.0,2578.0,-3144.0,449.0,-1065.0
-42.0,7.0,450.0,-411.0,2578.0,-2797.0,250.0,-948.0
-51.0,124.0,244.0,-328.0,2504.0,188.0,491.0,-692.0
30.0,477.0,982.0,-206.0,2491.0,-901.0,1406.0,-736.0
52.0,615.0,92.0,-163.0,2254.0,-6.0,1843.0,-1194.0
127.0,631.0,-1362.0,-72.0,1733.0,2289.0,2631.0,-1461.0
35.0,518.0,-1617.0,-39.0,1134.0,3398.0,3021.0,-1925.0
-22.0,347.0,-572.0,-102.0,415.0,1247.0,3411.0,-2491.0
-46.0,309.0,-2027.0,-129.0,-207.0,113.0,4000.0,-3005.0
14.0,394.0,-4000.0,-107.0,-539.0,1666.0,4000.0,-3527.0
56.0,270.0,-4000.0,-173.0,-659.0,-582.0,4000.0,-3923.0
43.0,235.0,-4000.0,-206.0,-673.0,-2400.0,4000.0,-4000.0
127.0,289.0,-3355.0,-133.0,-803.0,-4000.0,4000.0,-3695.0
281.0,412.0,4000.0,-47.0,-1137.0,-4000.0,4000.0,-2555.0
293.0,465.0,4000.0,10.0,-1007.0,-2406.0,4000.0,-715.0
269.0,449.0,4000.0,-4.0,-1383.0,-456.0,4000.0,1541.0
303.0,388.0,4000.0,-12.0,-1823.0,-1623.0,4000.0,4000.0
216.0,294.0,4000.0,-71.0,-1795.0,2319.0,4000.0,4000.0
180.0,502.0,4000.0,-39.0,-2370.0,4000.0,4000.0,4000.0
162.0,652.0,4000.0,-84.0,-2870.0,3680.0,4000.0,4000.0
296.0,477.0,2460.0,-173.0,-3132.0,2353.0,4000.0,4000.0
595.0,235.0,-804.0,-149.0,-3041.0,2112.0,3038.0,-2071.0
462.0,-10.0,-1730.0,68.0,-2595.0,1227.0,693.0,-4000.0
-77.0,-437.0,-2253.0,262.0,-2252.0,471.0,-1054.0,-4000.0
-266.0,-549.0,-3604.0,245.0,-1992.0,1387.0,-2594.0,-4000.0
-271.0,-160.0,-4000.0,264.0,-1619.0,815.0,-4000.0,-4000.0
-274.0,-57.0,-4000.0,125.0,-1398.0,-297.0,-4000.0,-4000.0
-441.0,-270.0,-4000.0,1.0,-818.0,-1623.0,-4000.0,-4000.0
-582.0,-371.0,-4000.0,-18.0,-460.0,-1943.0,-4000.0,-3527.0
-474.0,-411.0,-3950.0,-62.0,-643.0,-1233.0,-4000.0,-2153.0
-416.0,-467.0,-2884.0,-193.0,-653.0,-849.0,-4000.0,-605.0
-271.0,-505.0,-1537.0,-282.0,-751.0,-1070.0,-4000.0,483.0
-209.0,-663.0,-314.0,-312.0,-797.0,-750.0,-4000.0,1122.0
-89.0,-705.0,187.0,-401.0,-770.0,-333.0,-4000.0,1567.0
106.0,-562.0,634.0,-384.0,-803.0,161.0,-4000.0,1704.0
155.0,-513.0,592.0,-336.0,-621.0,555.0,-4000.0,1763.0
190.0,-404.0,389.0,-290.0,-534.0,-84.0,-4000.0,1502.0
114.0,-275.0,-139.0,-195.0,-708.0,-310.0,-4000.0,1091.0
89.0,-100.0,-676.0,-72.0,-899.0,-729.0,-4000.0,695.0
55.0,45.0,-637.0,-64.0,-1072.0,-685.0,-4000.0,695.0
92.0,112.0,573.0,-63.0,-942.0,-332.0,-4000.0,999.0
346.0,187.0,1639.0,-65.0,-379.0,137.0,-4000.0,992.0
393.0,184.0,1794.0,-159.0,162.0,651.0,-4000.0,922.0
-225.0,196.0,728.0,-161.0,477.0,1148.0,-4000.0,935.0
-580.0,213.0,-585.0,-200.0,318.0,1474.0,-4000.0,1077.0
-27.0,225.0,345.0,-255.0,-107.0,758.0,-4000.0,1519.0
266.0,254.0,891.0,-285.0,-248.0,-751.0,-4000.0,1989.0
438.0,328.0,1249.0,-306.0,-486.0,-810.0,-4000.0,2119.0
508.0,460.0,1745.0,-230.0,-673.0,1214.0,-4000.0,1763.0
281.0,621.0,1301.0,-224.0,-999.0,953.0,-4000.0,1085.0
149.0,672.0,996.0,-180.0,-1626.0,-611.0,-3585.0,620.0
-97.0,598.0,244.0,-136.0,-2029.0,-875.0,-3017.0,369.0
-188.0,483.0,-119.0,-129.0,-3066.0,-1747.0,-2626.0,184.0
-221.0,304.0,-274.0,-75.0,-4000.0,-2532.0,-2276.0,145.0
-128.0,79.0,-212.0,-82.0,-4000.0,-680.0,-1950.0,-49.0
6.0,-288.0,-132.0,-37.0,-4000.0,1279.0,-1454.0,-385.0
222.0,-585.0,-247.0,-3.0,-4000.0,2308.0,-941.0,-562.0
390.0,-562.0,-324.0,28.0,-4000.0,3267.0,-546.0,-471.0
514.0,-271.0,-463.0,44.0,-4000.0,2694.0,-216.0,-10.0
825.0,-113.0,-233.0,48.0,-4000.0,2645.0,31.0,825.0
624.0,-75.0,-85.0,75.0,-4000.0,2905.0,181.0,1912.0
130.0,95.0,-24.0,84.0,-4000.0,3678.0,616.0,2689.0
-170.0,129.0,27.0,144.0,-4000.0,3345.0,1129.0,2437.0
-313.0,46.0,15.0,179.0,-4000.0,877.0,1314.0,1660.0
-909.0,43.0,-40.0,236.0,-4000.0,-147.0,1670.0,1411.0
-2628.0,-6.0,5.0,310.0,-4000.0,-911.0,1905.0,1286.0
-3866.0,-46.0,10.0,382.0,-4000.0,-1447.0,1996.0,1411.0
-3282.0,-70.0,39.0,402.0,-4000.0,-1461.0,2190.0,1621.0
-1585.0,-167.0,24.0,394.0,-4000.0,-1357.0,2426.0,1142.0
961.0,-157.0,-2.0,400.0,-4000.0,-1257.0,2890.0,456.0
2777.0,-84.0,64.0,388.0,4000.0,-1140.0,3151.0,-187.0
3182.0,57.0,20.0,545.0,4000.0,-988.0,3282.0,-240.0
2614.0,225.0,17.0,948.0,4000.0,-1257.0,3429.0,420.0
1376.0,250.0,-8.0,950.0,4000.0,-771.0,3838.0,1533.0
447.0,191.0,-30.0,520.0,4000.0,476.0,4000.0,2770.0
-367.0,132.0,-17.0,215.0,4000.0,1352.0,4000.0,3275.0
-691.0,152.0,35.0,-36.0,4000.0,1222.0,4000.0,3096.0
-807.0,152.0,45.0,-39.0,4000.0,91.0,3708.0,2183.0
-654.0,155.0,63.0,77.0,4000.0,-1550.0,3021.0,988.0
-407.0,217.0,118.0,190.0,4000.0,-2167.0,2682.0,84.0
-301.0,235.0,141.0,259.0,4000.0,-1005.0,2486.0,-529.0
-12.0,282.0,121.0,187.0,4000.0,1474.0,2552.0,798.0
122.0,263.0,89.0,209.0,4000.0,2877.0,2749.0,1912.0
177.0,176.0,67.0,88.0,2320.0,1580.0,2843.0,1411.0
111.0,58.0,-22.0,-12.0,-223.0,-261.0,3217.0,890.0
100.0,-30.0,-132.0,-11.0,-1449.0,-3144.0,3791.0,1598.0
116.0,-20.0,-210.0,45.0,-2512.0,-3010.0,4000.0,3910.0
12.0,-74.0,-88.0,244.0,-3250.0,29.0,4000.0,4000.0
-45.0,-135.0,-45.0,345.0,-4000.0,471.0,4000.0,4000.0
104.0,-226.0,-33.0,354.0,-4000.0,-93.0,4000.0,3996.0
265.0,-286.0,11.0,422.0,-4000.0,-550.0,4000.0,455.0
412.0,-174.0,-20.0,459.0,-4000.0,-598.0,4000.0,-4000.0
325.0,-74.0,10.0,402.0,-4000.0,1006.0,4000.0,-4000.0
-5.0,5.0,-68.0,655.0,-4000.0,3808.0,3596.0,-4000.0
-127.0,70.0,19.0,980.0,-4000.0,4000.0,3477.0,-4000.0
-280.0,50.0,134.0,1119.0,-4000.0,4000.0,3270.0,-4000.0
-620.0,-23.0,114.0,1175.0,-4000.0,4000.0,3103.0,-4000.0
-654.0,-155.0,112.0,891.0,-4000.0,1704.0,2973.0,-3593.0
-109.0,-253.0,-109.0,598.0,-4000.0,-3181.0,3073.0,-1520.0
109.0,-253.0,-489.0,-523.0,-4000.0,-4000.0,3477.0,-659.0
-258.0,-244.0,-585.0,-1329.0,-4000.0,-4000.0,2684.0,-824.0
-620.0,-206.0,-362.0,-1109.0,-4000.0,-4000.0,1228.0,-1206.0
32.0,-169.0,-125.0,-1565.0,-4000.0,-4000.0,4.0,-915.0
772.0,-171.0,-28.0,-1500.0,-4000.0,-4000.0,-1264.0,-259.0
266.0,-177.0,-36.0,-1174.0,-4000.0,-4000.0,-2121.0,-215.0
465.0,-141.0,-70.0,-760.0,-4000.0,-712.0,-3752.0,-75.0
855.0,-101.0,77.0,144.0,-4000.0,3770.0,-4000.0,474.0
609.0,-87.0,449.0,559.0,-4000.0,3409.0,-4000.0,90.0
538.0,-78.0,556.0,428.0,-4000.0,4000.0,-4000.0,-269.0
304.0,-8.0,263.0,11.0,-4000.0,3166.0,-3065.0,-229.0
171.0,11.0,212.0,-96.0,-4000.0,-750.0,-2158.0,144.0
64.0,8.0,284.0,-298.0,-4000.0,-1237.0,-1258.0,629.0
-127.0,50.0,-247.0,-1435.0,1538.0,-1452.0,100.0,927.0
-227.0,7.0,-1127.0,-2972.0,4000.0,-773.0,1190.0,1338.0
-266.0,38.0,-841.0,-2713.0,4000.0,-1330.0,1345.0,1000.0
-236.0,90.0,-107.0,-1952.0,4000.0,431.0,506.0,621.0
-181.0,105.0,60.0,-1565.0,4000.0,738.0,0.0,-58.0
-177.0,134.0,425.0,-894.0,4000.0,1626.0,-189.0,-724.0
-215.0,151.0,231.0,-812.0,4000.0,1734.0,246.0,-590.0
-218.0,170.0,80.0,-527.0,4000.0,947.0,29.0,-862.0
-280.0,186.0,81.0,-316.0,4000.0,2060.0,-391.0,-1129.0
-285.0,228.0,45.0,140.0,2095.0,1824.0,-1038.0,-818.0
-222.0,233.0,158.0,622.0,-2122.0,2694.0,-1767.0,-687.0
-213.0,220.0,-78.0,756.0,-4000.0,2759.0,-2453.0,-750.0
-535.0,156.0,-67.0,864.0,-4000.0,3083.0,-2842.0,-927.0
-1231.0,93.0,45.0,844.0,-4000.0,2629.0,-2115.0,-622.0
-1560.0,26.0,100.0,832.0,-4000.0,1539.0,-1425.0,-163.0
-1365.0,-33.0,77.0,661.0,-4000.0,563.0,-859.0,-521.0
-1365.0,-33.0,10.0,538.0,-4000.0,531.0,-1101.0,-679.0
-518.0,-65.0,-93.0,352.0,-4000.0,2124.0,-1813.0,-431.0
303.0,-49.0,34.0,728.0,-4000.0,2084.0,-1897.0,-223.0
1000.0,-31.0,284.0,1249.0,-4000.0,1824.0,-1527.0,63.0
2910.0,-20.0,410.0,1241.0,-4000.0,1824.0,-1308.0,55.0
2744.0,30.0,408.0,1053.0,-4000.0,2319.0,-1728.0,144.0
2536.0,122.0,311.0,642.0,-4000.0,2450.0,-1702.0,241.0
2341.0,176.0,296.0,113.0,-2670.0,1864.0,-308.0,686.0
1116.0,59.0,-59.0,-637.0,1533.0,1901.0,661.0,1207.0
310.0,-209.0,-625.0,-1174.0,4000.0,1573.0,72.0,1118.0
-750.0,-333.0,-1041.0,-1350.0,4000.0,315.0,-697.0,1241.0
-993.0,-122.0,-951.0,-1266.0,4000.0,-1177.0,-1030.0,1281.0
-1235.0,-121.0,-1041.0,-1174.0,4000.0,-1496.0,-676.0,1411.0
-1300.0,-368.0,-1362.0,-978.0,4000.0,-2974.0,-796.0,1541.0
-1153.0,-426.0,-709.0,-855.0,4000.0,-4000.0,-1813.0,1660.0
-775.0,-230.0,124.0,-639.0,4000.0,-3518.0,-2842.0,2054.0
-450.0,-67.0,772.0,-312.0,4000.0,-1434.0,-3212.0,2872.0
-339.0,106.0,1098.0,-458.0,4000.0,44.0,-1950.0,4000.0
-258.0,392.0,1062.0,-450.0,4000.0,278.0,105.0,4000.0
-212.0,227.0,773.0,-479.0,4000.0,-407.0,2036.0,4000.0
-20.0,70.0,134.0,-198.0,4000.0,-9.0,3347.0,4000.0
-59.0,82.0,-403.0,187.0,4000.0,124.0,3151.0,3458.0
-40.0,-118.0,-651.0,365.0,4000.0,961.0,2826.0,2742.0
-148.0,-143.0,-447.0,598.0,4000.0,2759.0,3086.0,2248.0
-148.0,-314.0,-157.0,712.0,4000.0,3018.0,3335.0,1476.0
-56.0,-337.0,258.0,923.0,4000.0,628.0,3270.0,992.0
58.0,-351.0,280.0,1232.0,4000.0,-399.0,2941.0,418.0
104.0,-216.0,385.0,1588.0,4000.0,-1316.0,3075.0,-395.0
108.0,152.0,408.0,1827.0,4000.0,-4000.0,3411.0,-883.0
175.0,130.0,349.0,2140.0,4000.0,-3453.0,3723.0,-1206.0
163.0,129.0,683.0,1737.0,4000.0,-175.0,3838.0,-1387.0
167.0,79.0,593.0,785.0,4000.0,-448.0,4000.0,-1404.0
103.0,70.0,331.0,533.0,3664.0,404.0,4000.0,-1143.0
130.0,135.0,-702.0,695.0,3037.0,1269.0,4000.0,-1050.0
132.0,182.0,-676.0,377.0,2160.0,-641.0,4000.0,-1823.0
263.0,117.0,152.0,-251.0,1592.0,-685.0,4000.0,-2747.0
166.0,27.0,663.0,-282.0,953.0,1266.0,3624.0,-3414.0
-1072.0,-15.0,1257.0,-580.0,56.0,1785.0,2814.0,-3268.0
-1707.0,-50.0,801.0,-849.0,-664.0,998.0,2290.0,-3048.0
-418.0,-86.0,-976.0,-877.0,-1768.0,-630.0,1532.0,-3073.0
521.0,-74.0,-3355.0,-742.0,-3054.0,-1265.0,206.0,-2800.0
1169.0,-109.0,-3330.0,-263.0,-4000.0,-1688.0,-607.0,-2747.0
1494.0,-200.0,-2566.0,-90.0,-4000.0,-2054.0,-1664.0,-2375.0
823.0,-150.0,-1878.0,-52.0,-4000.0,-493.0,-2384.0,-1746.0
-453.0,-179.0,964.0,-233.0,-4000.0,-109.0,-2842.0,-1391.0
-1798.0,-174.0,2849.0,-285.0,-4000.0,-1357.0,-3455.0,-653.0
-1066.0,-134.0,3304.0,-259.0,-3923.0,-2867.0,-3509.0,522.0
438.0,-73.0,2989.0,-226.0,-1059.0,-651.0,-3302.0,1456.0
1384.0,9.0,1769.0,-214.0,1639.0,947.0,-3538.0,1989.0
1905.0,46.0,748.0,-224.0,3744.0,657.0,-2859.0,1924.0
1572.0,83.0,559.0,42.0,4000.0,1525.0,-2610.0,1763.0
870.0,117.0,611.0,91.0,4000.0,433.0,-3585.0,2154.0
-124.0,79.0,807.0,96.0,4000.0,315.0,-4000.0,2300.0
-830.0,59.0,1003.0,129.0,4000.0,-459.0,-4000.0,1924.0
-1155.0,102.0,858.0,134.0,4000.0,-786.0,-3507.0,1012.0
-1349.0,116.0,695.0,183.0,4000.0,390.0,-3520.0,84.0
-1750.0,190.0,42.0,175.0,4000.0,1056.0,-3700.0,-417.0
-1605.0,280.0,-393.0,223.0,-2356.0,-1316.0,-3816.0,-517.0
-544.0,371.0,-847.0,203.0,-4000.0,-3363.0,-4000.0,318.0
1.0,328.0,-1760.0,158.0,-4000.0,-1424.0,-3236.0,645.0
308.0,188.0,-3083.0,122.0,-4000.0,296.0,-2274.0,230.0
618.0,150.0,-3278.0,109.0,-4000.0,1929.0,-1600.0,394.0
668.0,142.0,-2385.0,99.0,-4000.0,941.0,-750.0,384.0
514.0,121.0,-1321.0,65.0,-2664.0,548.0,-923.0,570.0
314.0,109.0,178.0,47.0,-2369.0,232.0,-1104.0,1006.0
281.0,58.0,389.0,22.0,-3250.0,1.0,-733.0,1272.0
268.0,37.0,663.0,-2.0,-4000.0,850.0,-762.0,1373.0
292.0,-3.0,1003.0,-5.0,-4000.0,-84.0,-1173.0,890.0
180.0,-10.0,624.0,-57.0,-4000.0,-268.0,-733.0,621.0
-476.0,25.0,630.0,-90.0,-4000.0,-354.0,-603.0,544.0
-1947.0,-27.0,636.0,-104.0,-4000.0,651.0,-973.0,747.0
-1846.0,-47.0,345.0,-130.0,-4000.0,1077.0,-1063.0,1026.0
-404.0,-88.0,-810.0,-131.0,-3868.0,1010.0,-787.0,882.0
-1495.0,-93.0,-2717.0,-125.0,-3197.0,1287.0,-794.0,409.0
-2372.0,-90.0,-2757.0,-53.0,-1265.0,831.0,-1071.0,-51.0
-285.0,-101.0,-572.0,-41.0,1443.0,506.0,-1038.0,-168.0
1429.0,-72.0,1003.0,-61.0,3281.0,613.0,-417.0,-71.0
2728.0,-94.0,2455.0,-37.0,3733.0,1188.0,346.0,-142.0
4000.0,-112.0,3202.0,-159.0,4000.0,1214.0,506.0,-753.0
3674.0,-105.0,2333.0,-175.0,4000.0,1417.0,860.0,-1130.0
2728.0,-114.0,-123.0,146.0,4000.0,1580.0,1076.0,-1083.0
1311.0,-118.0,-2847.0,199.0,3682.0,641.0,667.0,-1176.0
-66.0,-49.0,-3136.0,-127.0,2695.0,-710.0,551.0,-1169.0
-616.0,-70.0,-1992.0,-401.0,2060.0,-1766.0,989.0,-1208.0
-1031.0,-93.0,-247.0,-639.0,1201.0,-2558.0,1630.0,-1298.0
-979.0,-62.0,1703.0,-560.0,-258.0,-4000.0,1931.0,-1515.0
-901.0,-38.0,2924.0,-316.0,-1316.0,-3946.0,1399.0,-1746.0
-756.0,38.0,3054.0,-208.0,-2043.0,-1322.0,596.0,-1772.0
-823.0,4.0,2412.0,-150.0,-2806.0,-415.0,472.0,-1904.0
-844.0,44.0,1794.0,-85.0,-3917.0,-379.0,818.0,-1396.0
-880.0,129.0,914.0,41.0,-4000.0,83.0,1149.0,-529.0
-873.0,128.0,228.0,62.0,-3368.0,380.0,1475.0,-524.0
-746.0,136.0,-373.0,-41.0,-1378.0,752.0,1540.0,-683.0
-679.0,162.0,-817.0,-18.0,96.0,988.0,1463.0,-736.0
-338.0,176.0,-906.0,34.0,-343.0,1258.0,1457.0,-809.0
58.0,217.0,-1348.0,-10.0,-3575.0,1048.0,1580.0,-290.0
216.0,273.0,-1878.0,21.0,-4000.0,811.0,2114.0,174.0
-258.0,186.0,-1563.0,16.0,-4000.0,693.0,2647.0,196.0
-1200.0,54.0,-424.0,-5.0,-4000.0,654.0,3203.0,397.0
-893.0,34.0,374.0,-70.0,-4000.0,433.0,3607.0,651.0
391.0,19.0,701.0,-130.0,-3456.0,183.0,4000.0,455.0
798.0,-39.0,546.0,-145.0,-3456.0,415.0,4000.0,344.0
1116.0,-59.0,-158.0,-105.0,-3278.0,693.0,3400.0,434.0
961.0,-32.0,-476.0,-24.0,-3380.0,764.0,1208.0,442.0
452.0,-88.0,-906.0,-35.0,-2912.0,628.0,-477.0,955.0
-20.0,-151.0,-1944.0,-25.0,-2303.0,701.0,-1961.0,902.0
-604.0,-138.0,-1492.0,-119.0,-1534.0,791.0,-2869.0,1077.0
-655.0,-139.0,-52.0,-168.0,-600.0,701.0,-2385.0,1846.0
-562.0,-81.0,196.0,-78.0,64.0,586.0,-790.0,2248.0
-407.0,74.0,448.0,0.0,607.0,392.0,1658.0,2118.0
-319.0,225.0,248.0,-27.0,627.0,374.0,3542.0,1216.0
-97.0,263.0,85.0,-22.0,1097.0,361.0,4000.0,629.0
137.0,290.0,89.0,28.0,1938.0,105.0,4000.0,-207.0
212.0,186.0,-255.0,2.0,2754.0,-159.0,4000.0,-1070.0
157.0,95.0,-125.0,35.0,3399.0,-318.0,4000.0,-853.0
192.0,114.0,-61.0,-33.0,3606.0,-456.0,4000.0,-539.0
361.0,46.0,41.0,-95.0,4000.0,-510.0,4000.0,-1148.0
382.0,31.0,114.0,-87.0,3903.0,-615.0,4000.0,-1615.0
338.0,93.0,196.0,-92.0,3410.0,-831.0,4000.0,-1526.0
295.0,73.0,-41.0,-72.0,3884.0,-1161.0,4000.0,-1298.0
265.0,27.0,-92.0,-55.0,4000.0,-1831.0,3009.0,-236.0
122.0,-6.0,85.0,-21.0,4000.0,-3051.0,2256.0,606.0
129.0,-42.0,137.0,28.0,3802.0,-4000.0,1630.0,361.0
214.0,9.0,362.0,113.0,2813.0,-4000.0,823.0,-242.0
257.0,30.0,122.0,91.0,1694.0,-4000.0,51.0,-334.0
266.0,40.0,-141.0,61.0,1408.0,145.0,-646.0,-529.0
212.0,0.0,-159.0,77.0,2317.0,1409.0,-1076.0,-443.0
134.0,1.0,-183.0,22.0,2776.0,2878.0,-2062.0,-354.0
-280.0,83.0,133.0,7.0,3606.0,4000.0,-2740.0,-683.0
-580.0,39.0,400.0,-20.0,4000.0,4000.0,-3261.0,-748.0
-122.0,14.0,671.0,46.0,4000.0,4000.0,-3660.0,-924.0
228.0,-55.0,577.0,195.0,4000.0,4000.0,-3833.0,-869.0
178.0,-89.0,402.0,199.0,4000.0,4000.0,-4000.0,-883.0
233.0,-77.0,565.0,103.0,4000.0,4000.0,-4000.0,-953.0
233.0,-95.0,307.0,-111.0,4000.0,3539.0,-4000.0,-656.0
107.0,-127.0,-194.0,-321.0,4000.0,3149.0,-4000.0,145.0
-132.0,-159.0,-609.0,-361.0,4000.0,2485.0,-4000.0,670.0
-190.0,-111.0,-487.0,-299.0,4000.0,2316.0,-3833.0,1372.0
-497.0,-118.0,-362.0,-271.0,4000.0,1539.0,-4000.0,1859.0
-719.0,-80.0,-340.0,-266.0,4000.0,1378.0,-4000.0,1846.0
-61.0,-18.0,105.0,-185.0,4000.0,441.0,-4000.0,1960.0
408.0,-26.0,566.0,-122.0,4000.0,75.0,-4000.0,1727.0
516.0,-32.0,996.0,-32.0,4000.0,-423.0,-4000.0,1976.0
357.0,-19.0,757.0,6.0,4000.0,-532.0,-3390.0,2054.0
62.0,32.0,204.0,62.0,4000.0,-586.0,-3700.0,1792.0
-132.0,57.0,39.0,113.0,4000.0,-641.0,-4000.0,1633.0
-366.0,49.0,-364.0,64.0,1247.0,-517.0,-3916.0,1504.0
-261.0,103.0,-666.0,97.0,-947.0,-586.0,-3147.0,1325.0
-247.0,105.0,-544.0,115.0,-2531.0,-550.0,-1832.0,1044.0
-223.0,57.0,-277.0,139.0,-4000.0,-750.0,-1071.0,796.0
-184.0,23.0,201.0,174.0,-4000.0,-685.0,-1266.0,189.0
-180.0,-15.0,540.0,236.0,-4000.0,-940.0,-1312.0,-506.0
-83.0,-10.0,46.0,203.0,-4000.0,-1200.0,-1169.0,-422.0
-146.0,15.0,-651.0,129.0,-4000.0,-1257.0,-1358.0,-305.0
-162.0,-1.0,-454.0,194.0,-4000.0,-1011.0,-1397.0,-480.0
-132.0,1.0,335.0,102.0,-4000.0,-881.0,-1533.0,-1123.0
-67.0,14.0,524.0,35.0,-4000.0,-593.0,-1462.0,-1970.0
-55.0,52.0,654.0,7.0,-4000.0,-39.0,-946.0,-2502.0
-118.0,30.0,654.0,-78.0,-4000.0,167.0,-436.0,-2918.0
-523.0,-8.0,160.0,-132.0,-4000.0,209.0,-196.0,-1735.0
-1324.0,-4.0,134.0,-114.0,-4000.0,146.0,145.0,-65.0
-2505.0,-47.0,80.0,-35.0,-4000.0,129.0,290.0,692.0
-2696.0,-105.0,-148.0,-75.0,-4000.0,-28.0,-20.0,1142.0
-307.0,-157.0,-67.0,-98.0,-4000.0,-116.0,89.0,1334.0
2157.0,-148.0,-238.0,-66.0,-4000.0,203.0,490.0,1568.0
3755.0,-109.0,-375.0,-22.0,-4000.0,166.0,576.0,1728.0
4000.0,-114.0,-165.0,-8.0,-4000.0,21.0,506.0,1859.0
2829.0,-99.0,59.0,16.0,-3262.0,525.0,642.0,1533.0
1897.0,-77.0,34.0,81.0,-2550.0,641.0,492.0,981.0
54.0,-102.0,42.0,134.0,-1424.0,628.0,350.0,745.0
-1110.0,-165.0,-33.0,158.0,-276.0,1075.0,299.0,634.0
-45.0,-143.0,-247.0,134.0,859.0,2164.0,329.0,612.0
256.0,-104.0,10.0,110.0,2229.0,2255.0,554.0,802.0
-107.0,-64.0,-33.0,63.0,3606.0,933.0,889.0,745.0
-1105.0,11.0,-77.0,16.0,4000.0,693.0,1149.0,218.0
-1950.0,73.0,-93.0,-49.0,4000.0,3018.0,1149.0,-797.0
-2031.0,156.0,-133.0,-93.0,4000.0,3330.0,1324.0,-2409.0
-2049.0,120.0,-7.0,-5.0,4000.0,504.0,1259.0,-2425.0
-1170.0,121.0,-141.0,26.0,4000.0,208.0,1184.0,-1396.0
-476.0,233.0,20.0,-60.0,4000.0,766.0,1280.0,-904.0
-428.0,327.0,284.0,-86.0,4000.0,551.0,1267.0,-608.0
-87.0,325.0,246.0,-13.0,4000.0,88.0,1007.0,-69.0
155.0,201.0,268.0,-24.0,4000.0,-101.0,620.0,556.0
147.0,105.0,301.0,-17.0,4000.0,-722.0,339.0,193.0
127.0,33.0,195.0,16.0,4000.0,-859.0,130.0,-692.0
91.0,-48.0,149.0,10.0,4000.0,-586.0,83.0,-1170.0
204.0,-73.0,164.0,15.0,4000.0,-1421.0,39.0,-1070.0
147.0,-73.0,95.0,39.0,4000.0,-1831.0,-42.0,-1046.0
314.0,-84.0,-52.0,42.0,4000.0,-2463.0,-122.0,-1274.0
499.0,-89.0,-126.0,-33.0,4000.0,-3079.0,14.0,-1643.0
504.0,-117.0,-156.0,-49.0,4000.0,-3685.0,225.0,-2063.0
1000.0,-139.0,93.0,-37.0,4000.0,-4000.0,368.0,-2556.0
1221.0,-244.0,317.0,-17.0,4000.0,-4000.0,433.0,-2747.0
776.0,-208.0,124.0,23.0,4000.0,-4000.0,325.0,-2230.0
692.0,-149.0,148.0,-23.0,4000.0,-4000.0,359.0,-1735.0
823.0,-163.0,263.0,-66.0,4000.0,-4000.0,380.0,-1469.0
778.0,-113.0,163.0,-74.0,4000.0,-4000.0,494.0,-1558.0
447.0,-81.0,89.0,-57.0,4000.0,-4000.0,652.0,-1755.0
-685.0,-38.0,-50.0,31.0,3789.0,-3978.0,802.0,-2062.0
-915.0,17.0,-16.0,272.0,3595.0,-3750.0,962.0,-2193.0
-850.0,46.0,3.0,467.0,3657.0,-4000.0,968.0,-1839.0
-1137.0,34.0,3.0,482.0,3660.0,-3535.0,954.0,-1514.0
-966.0,69.0,5.0,785.0,3790.0,-1050.0,948.0,-605.0
-1072.0,40.0,-182.0,1059.0,3707.0,1994.0,954.0,141.0
-779.0,-15.0,-292.0,655.0,3464.0,1352.0,988.0,600.0
-609.0,-49.0,-422.0,-97.0,3297.0,-706.0,1019.0,922.0
-318.0,-88.0,-681.0,-1010.0,3399.0,-69.0,1137.0,817.0
-582.0,-28.0,-606.0,-1329.0,3595.0,1018.0,1190.0,817.0
-763.0,58.0,-480.0,-1219.0,3707.0,2060.0,1158.0,890.0
-448.0,127.0,-448.0,-1245.0,3558.0,2308.0,1202.0,1000.0
-170.0,136.0,-258.0,-1077.0,3281.0,1443.0,1223.0,1309.0
285.0,66.0,-172.0,-830.0,3008.0,1344.0,1208.0,1769.0
363.0,-26.0,-34.0,-515.0,2516.0,1525.0,1202.0,1639.0
954.0,-98.0,-36.0,-232.0,2100.0,1669.0,1129.0,1183.0
1559.0,-69.0,-32.0,-92.0,1669.0,1898.0,1084.0,961.0
1767.0,10.0,-6.0,-40.0,1343.0,1907.0,1027.0,935.0
1051.0,27.0,-14.0,138.0,837.0,1340.0,934.0,1207.0
758.0,9.0,22.0,285.0,149.0,554.0,877.0,1026.0
501.0,-10.0,15.0,287.0,-425.0,177.0,816.0,-136.0
-331.0,-32.0,50.0,329.0,-1012.0,-139.0,693.0,-1148.0
-396.0,-13.0,78.0,341.0,-1359.0,-326.0,563.0,-1453.0
-805.0,-26.0,136.0,453.0,-1534.0,-237.0,481.0,-620.0
-915.0,-14.0,177.0,428.0,-1703.0,673.0,481.0,731.0
-566.0,13.0,238.0,420.0,-1737.0,1799.0,522.0,1895.0
-260.0,-10.0,218.0,402.0,-1703.0,2124.0,608.0,3390.0
-392.0,20.0,223.0,328.0,-1729.0,2019.0,687.0,4000.0
-258.0,3.0,189.0,207.0,-1918.0,1092.0,726.0,3291.0
-135.0,2.0,169.0,44.0,-2057.0,557.0,759.0,2624.0
-254.0,-20.0,153.0,-33.0,-1945.0,1069.0,759.0,2640.0
12.0,-43.0,-105.0,-46.0,-1853.0,1994.0,693.0,2119.0
233.0,9.0,-247.0,87.0,-1918.0,2377.0,598.0,1176.0
260.0,42.0,-152.0,187.0,-2056.0,693.0,506.0,825.0
111.0,22.0,-87.0,512.0,-2318.0,-972.0,425.0,489.0
182.0,15.0,-229.0,829.0,-2794.0,-198.0,325.0,-36.0
28.0,38.0,-393.0,313.0,-3197.0,1864.0,220.0,-386.0
-32.0,85.0,-405.0,-654.0,-3445.0,2512.0,113.0,-649.0
131.0,108.0,-429.0,-1101.0,-3803.0,1799.0,7.0,-904.0
216.0,125.0,-466.0,-936.0,-4000.0,477.0,-141.0,-1148.0
228.0,117.0,-425.0,-1396.0,-4000.0,-379.0,-227.0,-1259.0
194.0,121.0,-271.0,-1748.0,-4000.0,315.0,-333.0,-1176.0
130.0,115.0,-99.0,-1477.0,-3083.0,276.0,-436.0,-924.0
99.0,70.0,122.0,-1231.0,-1918.0,380.0,-371.0,-715.0
183.0,37.0,205.0,-835.0,-742.0,396.0,-284.0,-704.0
147.0,34.0,107.0,-901.0,-175.0,-106.0,-98.0,-614.0
123.0,73.0,166.0,-485.0,218.0,732.0,211.0,-339.0
-54.0,83.0,253.0,270.0,1091.0,1248.0,576.0,-94.0
-255.0,50.0,271.0,712.0,2428.0,1352.0,1092.0,-7.0
-74.0,-12.0,260.0,1059.0,4000.0,2353.0,1856.0,21.0
103.0,-72.0,217.0,1053.0,4000.0,3101.0,2631.0,95.0
137.0,-89.0,186.0,1110.0,4000.0,2385.0,3151.0,352.0
137.0,-130.0,171.0,1053.0,4000.0,2503.0,3364.0,459.0
68.0,-152.0,138.0,1090.0,4000.0,2447.0,3494.0,196.0
240.0,-188.0,147.0,988.0,4000.0,1135.0,3879.0,3.0
692.0,-172.0,165.0,838.0,4000.0,1051.0,3399.0,-202.0
811.0,-143.0,166.0,785.0,4000.0,664.0,1760.0,-514.0
570.0,-154.0,201.0,785.0,4000.0,-621.0,445.0,-557.0
204.0,-117.0,228.0,793.0,4000.0,-2170.0,550.0,-543.0
-261.0,-84.0,260.0,754.0,4000.0,-2235.0,889.0,-753.0
-436.0,-46.0,299.0,1013.0,4000.0,961.0,1019.0,-553.0
-691.0,-71.0,288.0,1495.0,4000.0,4000.0,1539.0,42.0
-1000.0,-74.0,231.0,2447.0,3707.0,3594.0,1967.0,277.0
-1305.0,-29.0,120.0,4000.0,3150.0,1639.0,2429.0,499.0
-1045.0,-40.0,-147.0,4000.0,2646.0,40.0,2321.0,586.0
-305.0,-17.0,-413.0,4000.0,1995.0,-1168.0,1645.0,483.0
180.0,8.0,-429.0,2722.0,1547.0,-97.0,954.0,597.0
785.0,40.0,-425.0,-251.0,1332.0,-50.0,319.0,686.0
334.0,70.0,-354.0,-3640.0,691.0,-939.0,-192.0,635.0
-354.0,83.0,-193.0,-4000.0,-92.0,-297.0,-603.0,456.0
-286.0,118.0,-160.0,-4000.0,-1072.0,-382.0,-891.0,192.0
-255.0,143.0,-172.0,-3958.0,-1992.0,-1196.0,-1266.0,-77.0
-161.0,182.0,-106.0,-2443.0,-2887.0,-2547.0,-1670.0,-301.0
-214.0,211.0,254.0,-3103.0,-3923.0,-3144.0,-2159.0,-391.0
-211.0,176.0,223.0,-3726.0,-4000.0,-3258.0,-2805.0,3.0
-174.0,156.0,-35.0,-4000.0,-4000.0,-3405.0,-3572.0,117.0
-183.0,182.0,-98.0,-4000.0,-4000.0,-3749.0,-4000.0,18.0
-109.0,102.0,-389.0,-4000.0,-4000.0,-526.0,-4000.0,107.0
-29.0,-104.0,-346.0,-3726.0,-4000.0,1733.0,-3725.0,42.0
13.0,-68.0,-77.0,-2904.0,-4000.0,-1383.0,-3472.0,116.0
0.0,20.0,137.0,-1834.0,-4000.0,-2839.0,-3366.0,111.0
62.0,158.0,253.0,-228.0,-4000.0,-4000.0,-3196.0,135.0
62.0,352.0,263.0,1037.0,-4000.0,-2463.0,-3119.0,123.0
2.0,477.0,436.0,2127.0,-4000.0,-802.0,-2988.0,125.0
58.0,494.0,541.0,2608.0,-4000.0,-216.0,-2799.0,160.0
142.0,216.0,484.0,3112.0,-4000.0,1901.0,-2622.0,93.0
147.0,144.0,517.0,3618.0,-4000.0,1187.0,-2367.0,108.0
129.0,48.0,846.0,3751.0,-4000.0,2034.0,-2080.0,107.0
95.0,-111.0,1348.0,3814.0,-2715.0,2060.0,-1702.0,43.0
111.0,-300.0,1171.0,3243.0,-1265.0,1071.0,-1303.0,-12.0
147.0,-330.0,450.0,2673.0,-10.0,-436.0,-1271.0,-23.0
142.0,-318.0,33.0,2122.0,1156.0,-1976.0,-1264.0,-50.0
149.0,-488.0,-606.0,988.0,2190.0,-1330.0,-1266.0,-67.0
147.0,-429.0,-1288.0,-45.0,2695.0,206.0,-1755.0,-89.0
127.0,-336.0,-1563.0,-296.0,2630.0,2953.0,-2353.0,-72.0
104.0,-224.0,-1944.0,37.0,2842.0,4000.0,-2675.0,-49.0
139.0,-193.0,-1813.0,577.0,2825.0,732.0,-2675.0,-71.0
134.0,-72.0,-963.0,642.0,2695.0,-228.0,-2418.0,-82.0
110.0,-40.0,-454.0,252.0,2772.0,1864.0,-1716.0,-59.0
74.0,-49.0,-224.0,-318.0,2889.0,1201.0,-1116.0,-69.0
29.0,18.0,324.0,-686.0,3428.0,-2040.0,-923.0,-74.0
13.0,10.0,73.0,-1219.0,3606.0,-4000.0,-711.0,-20.0
20.0,33.0,-580.0,-1851.0,2972.0,-3010.0,-485.0,-14.0
37.0,59.0,-898.0,-1857.0,1269.0,427.0,206.0,47.0
6.0,73.0,-692.0,-1545.0,-531.0,4000.0,197.0,87.0
12.0,67.0,-88.0,-1028.0,-2029.0,3901.0,-522.0,109.0
-39.0,122.0,-147.0,-546.0,-3120.0,929.0,-279.0,134.0
-37.0,149.0,168.0,113.0,-4000.0,339.0,-447.0,196.0
-16.0,162.0,695.0,630.0,-4000.0,-1032.0,-1116.0,304.0
-17.0,172.0,634.0,903.0,-4000.0,-1396.0,-1822.0,351.0
24.0,186.0,517.0,1045.0,-4000.0,-1647.0,-1775.0,300.0
21.0,227.0,492.0,1000.0,-4000.0,-2178.0,734.0,159.0
49.0,191.0,708.0,994.0,-4000.0,-2921.0,1670.0,99.0
35.0,110.0,903.0,1015.0,-4000.0,-3376.0,613.0,31.0
28.0,69.0,891.0,891.0,-4000.0,-2274.0,1059.0,-27.0
27.0,-47.0,787.0,728.0,-4000.0,-2119.0,838.0,-75.0
9.0,-220.0,598.0,392.0,-3456.0,-3387.0,557.0,-140.0
11.0,-249.0,321.0,-26.0,-2977.0,-4000.0,772.0,-168.0
-31.0,-179.0,-212.0,-79.0,-2912.0,-4000.0,1353.0,-251.0
-41.0,-220.0,-560.0,307.0,-3066.0,-2170.0,1801.0,-338.0
-13.0,-230.0,-11.0,1098.0,-3066.0,1343.0,767.0,-398.0
8.0,-212.0,511.0,1340.0,-2688.0,3463.0,824.0,-414.0
52.0,-218.0,385.0,1045.0,-2057.0,2971.0,1345.0,-443.0
-19.0,-208.0,246.0,255.0,-1571.0,1592.0,1457.0,-456.0
-118.0,-214.0,-189.0,-625.0,-999.0,660.0,1119.0,-392.0
-62.0,-139.0,-950.0,-1101.0,355.0,-124.0,637.0,-385.0
2.0,-90.0,-1231.0,-1526.0,1901.0,725.0,280.0,-389.0
14.0,-97.0,-1153.0,-1870.0,3476.0,3148.0,-510.0,-390.0
-183.0,-104.0,-955.0,-1552.0,4000.0,4000.0,93.0,-431.0
-569.0,-45.0,-421.0,-742.0,4000.0,3655.0,356.0,-507.0
-891.0,8.0,-63.0,-1016.0,4000.0,2424.0,250.0,-599.0
-1392.0,23.0,121.0,-1101.0,4000.0,1443.0,-23.0,-649.0
-1231.0,69.0,318.0,-702.0,4000.0,1482.0,-176.0,-693.0
719.0,99.0,362.0,-702.0,4000.0,2243.0,779.0,-740.0
2585.0,69.0,533.0,-397.0,4000.0,2577.0,791.0,-730.0
2663.0,64.0,495.0,-503.0,4000.0,858.0,844.0,-817.0
2458.0,67.0,526.0,-433.0,4000.0,-1232.0,823.0,-889.0
1755.0,70.0,566.0,28.0,3668.0,-1814.0,809.0,-1013.0
537.0,172.0,431.0,123.0,3150.0,-1467.0,1010.0,-1108.0
-296.0,286.0,337.0,81.0,2360.0,88.0,857.0,-1078.0
-974.0,437.0,238.0,-30.0,1579.0,2840.0,889.0,-996.0
-1218.0,648.0,205.0,69.0,1083.0,3855.0,870.0,-875.0
-1235.0,933.0,183.0,171.0,888.0,2840.0,749.0,-843.0
-1200.0,1461.0,191.0,378.0,496.0,-22.0,678.0,-730.0
-1039.0,1713.0,180.0,504.0,-248.0,-2713.0,809.0,-525.0
-915.0,1682.0,130.0,377.0,-934.0,-2061.0,637.0,-269.0
-750.0,1712.0,88.0,356.0,-1803.0,-977.0,732.0,114.0
-616.0,803.0,69.0,317.0,-2318.0,-875.0,720.0,710.0
-560.0,-631.0,19.0,362.0,-2147.0,778.0,470.0,1541.0
-506.0,-1457.0,34.0,598.0,-1375.0,1539.0,420.0,2419.0
-451.0,-2080.0,109.0,880.0,-183.0,-47.0,303.0,3291.0
-361.0,-2500.0,152.0,1031.0,542.0,-1715.0,294.0,4000.0
-319.0,-2060.0,108.0,1045.0,857.0,-2510.0,248.0,4000.0
-295.0,-807.0,62.0,1045.0,987.0,1051.0,270.0,4000.0
16.0,-487.0,6.0,465.0,1344.0,4000.0,303.0,4000.0
250.0,-1090.0,-192.0,-361.0,2189.0,4000.0,554.0,4000.0
310.0,-965.0,-159.0,-84.0,3346.0,4000.0,600.0,4000.0
342.0,-761.0,48.0,849.0,4000.0,4000.0,464.0,4000.0
296.0,-650.0,45.0,603.0,4000.0,4000.0,339.0,4000.0
277.0,-575.0,-26.0,-619.0,4000.0,3591.0,746.0,3079.0
169.0,-677.0,-116.0,-1154.0,4000.0,554.0,1092.0,-605.0
196.0,-556.0,-168.0,-1754.0,4000.0,-1792.0,689.0,-3527.0
220.0,-258.0,-470.0,-2220.0,4000.0,-3387.0,628.0,-4000.0
188.0,-11.0,-776.0,-1887.0,3596.0,-3917.0,315.0,-4000.0
202.0,309.0,-641.0,-1626.0,2254.0,-3441.0,141.0,-4000.0
139.0,582.0,-505.0,-1329.0,896.0,-3209.0,268.0,-4000.0
146.0,615.0,-562.0,-855.0,-681.0,-3246.0,102.0,-4000.0
97.0,485.0,-382.0,-261.0,-1433.0,-2998.0,282.0,-4000.0
45.0,485.0,-44.0,264.0,-790.0,-2528.0,260.0,-4000.0
4.0,686.0,101.0,714.0,-1514.0,-2774.0,178.0,-4000.0
29.0,724.0,134.0,752.0,-2989.0,-3063.0,59.0,-4000.0
121.0,758.0,88.0,500.0,-3391.0,-4000.0,-94.0,-1756.0
155.0,746.0,-87.0,500.0,-3312.0,-4000.0,100.0,409.0
212.0,788.0,-734.0,538.0,-3182.0,-2549.0,93.0,1859.0
212.0,817.0,-1061.0,364.0,-3802.0,-810.0,204.0,3523.0
281.0,846.0,-562.0,366.0,-4000.0,506.0,403.0,4000.0
302.0,882.0,14.0,533.0,-4000.0,-710.0,555.0,4000.0
204.0,709.0,134.0,238.0,-3563.0,-1818.0,576.0,4000.0
66.0,460.0,-204.0,272.0,-528.0,-227.0,510.0,3996.0
7.0,363.0,-300.0,423.0,771.0,439.0,604.0,3527.0
26.0,705.0,42.0,150.0,2231.0,542.0,394.0,3209.0
-31.0,1699.0,374.0,-15.0,3902.0,214.0,390.0,2966.0
-136.0,2103.0,598.0,46.0,4000.0,-1198.0,470.0,3535.0
-374.0,1063.0,736.0,158.0,4000.0,-875.0,309.0,4000.0
-457.0,536.0,813.0,341.0,3904.0,-232.0,98.0,4000.0
-323.0,270.0,657.0,649.0,3208.0,1395.0,-113.0,4000.0
-150.0,-444.0,345.0,764.0,2504.0,876.0,-228.0,4000.0
-24.0,-1188.0,466.0,777.0,1340.0,-685.0,-226.0,4000.0
-2.0,-1899.0,476.0,217.0,100.0,142.0,-198.0,4000.0
-66.0,-2112.0,250.0,-546.0,-1124.0,327.0,-306.0,4000.0
-154.0,-2320.0,-11.0,-625.0,-1992.0,-1121.0,-500.0,4000.0
-64.0,-2358.0,-463.0,-914.0,-2611.0,-3298.0,-699.0,4000.0
-30.0,-2483.0,-666.0,-1222.0,-2716.0,-3743.0,-745.0,4000.0
-16.0,-1526.0,-971.0,-1027.0,-2843.0,-3323.0,-836.0,4000.0
199.0,-553.0,-1004.0,-849.0,-2688.0,-1192.0,-802.0,4000.0
342.0,-940.0,-489.0,-515.0,-2660.0,4000.0,-782.0,3552.0
276.0,-1077.0,-244.0,-246.0,-2741.0,4000.0,-711.0,2550.0
149.0,-395.0,122.0,-185.0,-2741.0,4000.0,-676.0,1792.0
102.0,449.0,-225.0,-97.0,-2859.0,4000.0,-717.0,1598.0
25.0,621.0,-2344.0,95.0,-2843.0,3206.0,-506.0,1716.0
-242.0,549.0,-4000.0,232.0,-3262.0,214.0,-473.0,1586.0
-354.0,437.0,-2448.0,308.0,-3840.0,-1446.0,-501.0,1727.0
346.0,451.0,-358.0,373.0,-4000.0,-796.0,-394.0,58.0
1411.0,473.0,931.0,308.0,-4000.0,-861.0,-383.0,-1985.0
1488.0,451.0,2551.0,270.0,-4000.0,-852.0,-351.0,-1339.0
1189.0,607.0,1423.0,199.0,-4000.0,-1883.0,-272.0,-2218.0
1319.0,672.0,2395.0,199.0,-4000.0,-2547.0,-216.0,-4000.0
1104.0,644.0,3267.0,263.0,-4000.0,-1915.0,-98.0,-4000.0
489.0,615.0,2780.0,195.0,-4000.0,-1570.0,-27.0,-4000.0
-439.0,601.0,1458.0,126.0,-4000.0,195.0,-45.0,-4000.0
-1010.0,542.0,-578.0,48.0,-4000.0,1322.0,-6.0,-4000.0
-1430.0,418.0,-696.0,-61.0,-4000.0,1063.0,-2.0,-4000.0
-1616.0,269.0,-1214.0,-250.0,-1491.0,1148.0,143.0,-4000.0
-1717.0,341.0,-1484.0,-401.0,1482.0,2045.0,311.0,-4000.0
-2214.0,637.0,1509.0,-314.0,4000.0,1518.0,551.0,-4000.0
-2374.0,836.0,2286.0,-133.0,4000.0,-794.0,920.0,-4000.0
-2049.0,868.0,1822.0,-96.0,4000.0,-1688.0,962.0,-4000.0
-1076.0,919.0,3369.0,-42.0,4000.0,118.0,857.0,-4000.0
-417.0,947.0,3171.0,45.0,4000.0,1142.0,628.0,-4000.0
-141.0,770.0,2795.0,122.0,4000.0,-1701.0,481.0,-4000.0
-53.0,344.0,1300.0,149.0,4000.0,-4000.0,477.0,-4000.0
73.0,-68.0,-181.0,80.0,4000.0,-4000.0,532.0,-1540.0
163.0,-202.0,-741.0,142.0,4000.0,-459.0,494.0,-4000.0
382.0,-158.0,-833.0,122.0,4000.0,3680.0,189.0,-3007.0
961.0,-179.0,-1101.0,73.0,4000.0,2424.0,-11.0,-608.0
986.0,-128.0,-1732.0,152.0,4000.0,1730.0,22.0,-24.0
1051.0,412.0,-1476.0,109.0,4000.0,300.0,220.0,569.0
1116.0,1258.0,-1347.0,75.0,3877.0,-1915.0,384.0,1128.0
1051.0,1778.0,-1362.0,-17.0,3397.0,-2154.0,291.0,1901.0
825.0,1128.0,-1557.0,-71.0,2907.0,-3.0,191.0,2575.0
504.0,-79.0,-2212.0,-83.0,2578.0,3330.0,50.0,3261.0
398.0,-640.0,-4000.0,-301.0,2057.0,3361.0,-224.0,3326.0
292.0,-1024.0,-4000.0,-196.0,1656.0,4000.0,-477.0,3727.0
-103.0,-1773.0,-4000.0,31.0,1340.0,4000.0,-548.0,4000.0
-476.0,-1220.0,-4000.0,-6.0,804.0,1482.0,-213.0,3897.0
-339.0,1258.0,-2871.0,-37.0,163.0,921.0,-214.0,3996.0
14.0,2689.0,4000.0,-47.0,-315.0,987.0,-1097.0,4000.0
208.0,2732.0,4000.0,-249.0,-751.0,325.0,-1914.0,4000.0
299.0,1908.0,4000.0,-391.0,-1207.0,-1532.0,-1377.0,4000.0
424.0,-105.0,4000.0,-437.0,-1498.0,-1248.0,46.0,4000.0
298.0,-2074.0,1965.0,-430.0,-1945.0,-22.0,523.0,4000.0
180.0,-3678.0,4000.0,-298.0,-2434.0,126.0,498.0,4000.0
228.0,-3459.0,4000.0,-224.0,-2935.0,425.0,1345.0,3896.0
225.0,-1212.0,4000.0,-61.0,-3408.0,24.0,1841.0,3397.0
210.0,1447.0,4000.0,122.0,-3661.0,593.0,1214.0,3144.0
55.0,4000.0,1770.0,102.0,-3970.0,466.0,319.0,2705.0
-416.0,4000.0,-651.0,-32.0,-4000.0,-320.0,-276.0,2310.0
-647.0,4000.0,-4000.0,96.0,-4000.0,245.0,-394.0,2183.0
-506.0,4000.0,-4000.0,419.0,-3838.0,131.0,50.0,1960.0
-404.0,1331.0,-4000.0,583.0,-3274.0,-1518.0,122.0,1216.0
-374.0,-3213.0,-4000.0,551.0,-2252.0,-3193.0,-1197.0,629.0
-301.0,-4000.0,-3473.0,429.0,-535.0,-4000.0,-2626.0,851.0
-234.0,-4000.0,-1746.0,352.0,1775.0,-3683.0,-2669.0,935.0
-412.0,-4000.0,-271.0,301.0,3837.0,-4000.0,-1690.0,556.0
-476.0,-4000.0,-3897.0,301.0,411.0,-4000.0,-1136.0,275.0
-428.0,-4000.0,-4000.0,301.0,-4000.0,-973.0,-651.0,448.0
-341.0,-4000.0,-4000.0,290.0,-2029.0,172.0,989.0,1142.0
-3.0,-465.0,-4000.0,264.0,4000.0,-1096.0,2826.0,1716.0
373.0,4000.0,-4000.0,276.0,4000.0,1604.0,3021.0,1047.0
538.0,4000.0,-4000.0,262.0,-1202.0,4000.0,2569.0,-197.0
382.0,4000.0,-4000.0,97.0,944.0,2515.0,2761.0,-791.0
269.0,2997.0,-2895.0,-109.0,-2664.0,-51.0,2746.0,-1743.0
285.0,-454.0,-2074.0,-212.0,-254.0,1474.0,2033.0,-2491.0
212.0,-3676.0,-4000.0,-129.0,-2729.0,1140.0,883.0,-3020.0
243.0,-4000.0,-4000.0,-110.0,-4000.0,-501.0,204.0,-3450.0
346.0,-4000.0,-4000.0,-137.0,-4000.0,-881.0,-459.0,-3513.0
257.0,-4000.0,4000.0,-263.0,-4000.0,-1387.0,-1006.0,-3516.0
464.0,-2304.0,4000.0,-366.0,-4000.0,150.0,-1162.0,-3268.0
847.0,1396.0,4000.0,-411.0,-4000.0,1482.0,-1498.0,-3203.0
769.0,4000.0,4000.0,-560.0,4000.0,1963.0,-2121.0,-3073.0
332.0,4000.0,4000.0,-486.0,4000.0,2112.0,-2453.0,-3007.0
-113.0,4000.0,4000.0,-228.0,4000.0,1917.0,-1702.0,-2543.0
-227.0,3978.0,4000.0,-107.0,4000.0,1710.0,-615.0,-1578.0
-367.0,4000.0,4000.0,-212.0,4000.0,1033.0,195.0,-844.0
-691.0,4000.0,-2515.0,-214.0,4000.0,155.0,419.0,-366.0
-746.0,2407.0,-4000.0,-46.0,4000.0,-320.0,555.0,-85.0
-654.0,99.0,-3225.0,51.0,4000.0,1344.0,838.0,373.0
-942.0,-297.0,923.0,53.0,4000.0,-428.0,866.0,850.0
-1039.0,-2176.0,2551.0,38.0,4000.0,-2998.0,1119.0,1057.0
-807.0,-3099.0,-320.0,42.0,3916.0,-1850.0,1072.0,802.0
-784.0,-3782.0,-4000.0,217.0,745.0,-2177.0,-182.0,583.0
-523.0,-2810.0,-4000.0,270.0,-2212.0,-1617.0,-1380.0,609.0
-20.0,-1481.0,-4000.0,236.0,-4000.0,-87.0,-1128.0,666.0
281.0,-1160.0,-4000.0,310.0,-4000.0,1227.0,-129.0,988.0
369.0,-171.0,-3795.0,170.0,-4000.0,213.0,490.0,1122.0
334.0,-347.0,-4000.0,44.0,-4000.0,-2909.0,1326.0,825.0
322.0,-114.0,-4000.0,10.0,-4000.0,-3917.0,2061.0,285.0
491.0,790.0,-1581.0,-12.0,-4000.0,-2918.0,1194.0,-350.0
521.0,1701.0,-103.0,-40.0,-4000.0,-1070.0,-924.0,-818.0
334.0,1606.0,-1427.0,-1.0,-3923.0,-32.0,-2469.0,-1055.0
174.0,1583.0,-1193.0,33.0,-2549.0,1639.0,-2056.0,-1330.0
174.0,2168.0,-1760.0,-85.0,-1359.0,2824.0,-1201.0,-1469.0
293.0,2840.0,-4000.0,-241.0,-631.0,2377.0,-298.0,-1191.0
212.0,2673.0,-4000.0,-312.0,72.0,1864.0,687.0,-1259.0
172.0,2138.0,-4000.0,-312.0,602.0,860.0,469.0,-1888.0
201.0,2143.0,-4000.0,-411.0,896.0,163.0,-190.0,-2543.0
121.0,1713.0,-4000.0,-450.0,985.0,843.0,-546.0,-3126.0
151.0,1645.0,3631.0,-584.0,1207.0,1071.0,-222.0,-3451.0
176.0,2039.0,4000.0,-682.0,1460.0,520.0,603.0,-2995.0
74.0,1948.0,4000.0,-462.0,1531.0,-1526.0,805.0,-2088.0
-205.0,238.0,4000.0,-289.0,1533.0,-2157.0,66.0,-1143.0
-527.0,-895.0,4000.0,-113.0,1163.0,-1232.0,-1384.0,-144.0
-346.0,790.0,4000.0,88.0,519.0,-2119.0,-2465.0,241.0
-323.0,2819.0,4000.0,236.0,-411.0,-645.0,-2471.0,339.0
-327.0,2463.0,1098.0,333.0,-1179.0,681.0,-2471.0,955.0
79.0,721.0,-4000.0,311.0,-1292.0,-167.0,-2536.0,1512.0
-18.0,-960.0,-4000.0,362.0,-993.0,673.0,-2044.0,1468.0
-104.0,-2565.0,-637.0,400.0,-532.0,1340.0,-846.0,1460.0
-17.0,-3278.0,2391.0,433.0,72.0,2056.0,13.0,1964.0
-69.0,-4000.0,3885.0,465.0,-79.0,2124.0,693.0,2054.0
-9.0,-4000.0,3885.0,459.0,-1833.0,953.0,1866.0,2041.0
110.0,-3833.0,268.0,377.0,-4000.0,1980.0,3134.0,2314.0
134.0,-3984.0,-4000.0,297.0,-4000.0,4000.0,3799.0,2119.0
139.0,-2677.0,-4000.0,260.0,-4000.0,4000.0,3134.0,1476.0
346.0,-500.0,-1008.0,28.0,296.0,2288.0,2114.0,269.0
490.0,550.0,562.0,-70.0,4000.0,684.0,1454.0,-618.0
433.0,705.0,-121.0,-219.0,4000.0,-2315.0,1027.0,-904.0
250.0,1167.0,-2916.0,-308.0,4000.0,-4000.0,812.0,-583.0
176.0,1136.0,-4000.0,-357.0,4000.0,-3657.0,824.0,760.0
147.0,1071.0,-2318.0,-438.0,4000.0,-2992.0,812.0,2966.0
-9.0,789.0,-820.0,-344.0,4000.0,-3571.0,622.0,4000.0
-116.0,686.0,1021.0,-397.0,3902.0,-2882.0,1202.0,4000.0
-132.0,728.0,183.0,-202.0,-724.0,-2606.0,4000.0,4000.0
-50.0,876.0,-1648.0,36.0,-4000.0,-250.0,4000.0,4000.0
-48.0,908.0,-3225.0,187.0,-4000.0,1056.0,4000.0,4000.0
-62.0,587.0,-3030.0,442.0,-4000.0,1994.0,4000.0,4000.0
-73.0,607.0,-2899.0,557.0,-4000.0,2189.0,4000.0,4000.0
-126.0,705.0,-3083.0,655.0,-4000.0,1638.0,4000.0,3806.0
-176.0,933.0,-4000.0,630.0,-4000.0,1092.0,4000.0,4000.0
-237.0,705.0,-4000.0,551.0,-4000.0,411.0,4000.0,3275.0
-219.0,607.0,-1703.0,384.0,-3018.0,-106.0,4000.0,2689.0
-125.0,615.0,-328.0,187.0,-2741.0,-940.0,4000.0,863.0
-17.0,229.0,4000.0,5.0,-2484.0,-362.0,4000.0,-1316.0
-17.0,111.0,4000.0,-208.0,-2065.0,1604.0,4000.0,-3007.0
-29.0,57.0,4000.0,-336.0,-1571.0,3330.0,4000.0,-4000.0
-36.0,803.0,4000.0,-521.0,-1077.0,2224.0,4000.0,-4000.0
-13.0,280.0,2455.0,-558.0,-659.0,-350.0,4000.0,-4000.0
-33.0,-960.0,-678.0,-442.0,-26.0,-2750.0,2361.0,-3020.0
5.0,-556.0,-1813.0,-346.0,534.0,-4000.0,-1673.0,-3203.0
107.0,-28.0,-1348.0,-289.0,308.0,-4000.0,-4000.0,-4000.0
-10.0,517.0,-1484.0,-261.0,-523.0,-4000.0,-4000.0,-4000.0
-44.0,418.0,-2168.0,-301.0,-1573.0,-4000.0,-4000.0,-4000.0
-97.0,1258.0,-2627.0,-250.0,-2318.0,-4000.0,-4000.0,-4000.0
-81.0,1173.0,-3015.0,-82.0,-2344.0,-1359.0,-4000.0,-4000.0
24.0,-513.0,-2639.0,-82.0,-2231.0,1669.0,-4000.0,-4000.0
-21.0,-1487.0,-1862.0,-91.0,-1951.0,4000.0,-4000.0,-4000.0
71.0,-2122.0,-1214.0,-123.0,-1768.0,4000.0,-4000.0,-4000.0
508.0,-2242.0,-1022.0,-179.0,-1849.0,3460.0,-4000.0,-4000.0
1311.0,-3591.0,-802.0,-267.0,-812.0,3593.0,-4000.0,-4000.0
1124.0,-4000.0,-2.0,-348.0,888.0,3677.0,-4000.0,-4000.0
293.0,-4000.0,498.0,-211.0,2569.0,3655.0,-4000.0,-2763.0
4.0,-3229.0,627.0,-100.0,4000.0,3101.0,-4000.0,-1534.0
-551.0,-1689.0,828.0,-36.0,4000.0,3330.0,-4000.0,-1001.0
-844.0,-476.0,699.0,0.0,4000.0,3333.0,-4000.0,-419.0
-814.0,-114.0,461.0,18.0,4000.0,2877.0,-4000.0,-3.0
-909.0,-109.0,238.0,18.0,4000.0,2319.0,-4000.0,-540.0
-896.0,1.0,450.0,-74.0,4000.0,1340.0,-4000.0,-693.0
-580.0,241.0,541.0,-100.0,4000.0,391.0,-4000.0,-456.0
42.0,477.0,415.0,-95.0,4000.0,-641.0,-4000.0,-282.0
1108.0,542.0,361.0,-167.0,4000.0,-1177.0,-4000.0,-232.0
1897.0,737.0,441.0,-173.0,4000.0,-1180.0,-4000.0,-744.0
1494.0,796.0,430.0,-94.0,4000.0,99.0,-4000.0,-1826.0
725.0,973.0,331.0,-47.0,4000.0,1026.0,-4000.0,-2797.0
-620.0,1077.0,592.0,19.0,4000.0,286.0,-4000.0,-2375.0
-1365.0,1120.0,541.0,62.0,3037.0,-576.0,-4000.0,-1607.0
-1585.0,1246.0,565.0,31.0,-2664.0,-1387.0,-4000.0,-540.0
-1984.0,1266.0,546.0,-7.0,-4000.0,-3311.0,-4000.0,484.0
-1856.0,1258.0,463.0,-37.0,-4000.0,-4000.0,-4000.0,817.0
-1603.0,1168.0,461.0,-46.0,-4000.0,-4000.0,-3638.0,1307.0
-1065.0,1238.0,382.0,-28.0,-4000.0,-985.0,-2610.0,1057.0
-746.0,1315.0,337.0,4.0,-4000.0,1417.0,-1605.0,39.0
-534.0,1312.0,296.0,10.0,-4000.0,2358.0,-787.0,-467.0
-476.0,1294.0,242.0,-17.0,-4000.0,3280.0,-117.0,1012.0
-352.0,1122.0,-14.0,-37.0,-4000.0,3720.0,637.0,2872.0
257.0,920.0,-190.0,-42.0,-4000.0,3018.0,1581.0,3700.0
1161.0,787.0,-373.0,-40.0,-4000.0,2485.0,2486.0,4000.0
1246.0,615.0,-238.0,-110.0,-4000.0,1929.0,3086.0,4000.0
1000.0,477.0,169.0,-219.0,-4000.0,1787.0,3411.0,4000.0
1297.0,363.0,337.0,-214.0,-4000.0,2060.0,3708.0,4000.0
820.0,114.0,368.0,-153.0,-4000.0,2295.0,3903.0,3721.0
501.0,-166.0,-215.0,126.0,-4000.0,2358.0,4000.0,3404.0
243.0,-278.0,-1338.0,320.0,-4000.0,2034.0,4000.0,4000.0
119.0,-253.0,-1681.0,62.0,-4000.0,1734.0,4000.0,4000.0
250.0,-259.0,-120.0,-261.0,-4000.0,1579.0,4000.0,3209.0
281.0,-178.0,958.0,-466.0,-4000.0,1474.0,4000.0,3014.0
888.0,-36.0,1168.0,-546.0,-4000.0,1344.0,4000.0,2154.0
935.0,27.0,1368.0,-450.0,-4000.0,596.0,4000.0,1306.0
342.0,27.0,872.0,-365.0,-3802.0,-228.0,4000.0,1207.0
-128.0,-8.0,701.0,-237.0,196.0,76.0,4000.0,1247.0
-518.0,22.0,225.0,-86.0,3363.0,119.0,4000.0,1150.0
-719.0,-207.0,48.0,124.0,4000.0,-2451.0,4000.0,152.0
-710.0,-606.0,10.0,370.0,4000.0,-4000.0,4000.0,-1191.0
-615.0,-836.0,-82.0,341.0,4000.0,-4000.0,4000.0,-1613.0
-421.0,-856.0,-47.0,105.0,4000.0,-2079.0,4000.0,-1120.0
-191.0,-722.0,-209.0,87.0,4000.0,2577.0,4000.0,-441.0
55.0,-611.0,-259.0,128.0,4000.0,2295.0,4000.0,-305.0
-34.0,-568.0,-352.0,-48.0,4000.0,1051.0,4000.0,-341.0
-86.0,-631.0,-224.0,-121.0,4000.0,-236.0,4000.0,808.0
-53.0,-456.0,-274.0,-80.0,4000.0,-4000.0,4000.0,1924.0
-13.0,-72.0,-265.0,103.0,4000.0,-4000.0,4000.0,2754.0
147.0,33.0,-243.0,264.0,4000.0,-3506.0,4000.0,3853.0
220.0,50.0,-242.0,500.0,4000.0,-1766.0,4000.0,4000.0
447.0,77.0,-133.0,708.0,4000.0,-672.0,4000.0,4000.0
375.0,56.0,-129.0,655.0,4000.0,-1118.0,4000.0,4000.0
249.0,-54.0,-92.0,844.0,4000.0,-2156.0,3790.0,4000.0
89.0,-258.0,-144.0,1080.0,4000.0,-1961.0,2973.0,4000.0
-111.0,-231.0,-97.0,1285.0,4000.0,433.0,2486.0,3391.0
20.0,-134.0,-85.0,1696.0,4000.0,3036.0,2426.0,2314.0
110.0,-106.0,-113.0,2517.0,4000.0,1852.0,2429.0,580.0
202.0,15.0,-132.0,3230.0,4000.0,67.0,2826.0,-186.0
315.0,150.0,-158.0,2706.0,4000.0,-82.0,4000.0,-1070.0
328.0,263.0,-109.0,1473.0,4000.0,358.0,4000.0,-3020.0
253.0,309.0,-88.0,174.0,4000.0,815.0,1645.0,-4000.0
216.0,527.0,-50.0,-886.0,4000.0,1222.0,-182.0,-4000.0
357.0,832.0,30.0,-1027.0,4000.0,2971.0,-144.0,-4000.0
870.0,556.0,141.0,-833.0,4000.0,4000.0,610.0,-4000.0
1440.0,210.0,202.0,-784.0,4000.0,4000.0,1921.0,-4000.0
970.0,-236.0,205.0,-611.0,4000.0,4000.0,1519.0,-4000.0
-67.0,-530.0,215.0,442.0,2243.0,4000.0,374.0,-4000.0
-443.0,-456.0,153.0,1275.0,-82.0,4000.0,233.0,-4000.0
60.0,-501.0,-133.0,818.0,-2159.0,4000.0,1214.0,-4000.0
642.0,-432.0,-369.0,1155.0,-3844.0,3594.0,816.0,-3874.0
265.0,-100.0,-247.0,3694.0,-4000.0,2710.0,-138.0,-2866.0
-566.0,258.0,-33.0,4000.0,-4000.0,3474.0,219.0,-278.0
-1045.0,235.0,-178.0,3046.0,-4000.0,669.0,7.0,1260.0
-1031.0,94.0,-228.0,1110.0,-4000.0,-1915.0,-706.0,3263.0
-1430.0,25.0,20.0,-985.0,-4000.0,-2974.0,-855.0,4000.0
-3311.0,-37.0,-54.0,-3038.0,-4000.0,-4000.0,-500.0,4000.0
-4000.0,-81.0,-212.0,-4000.0,-4000.0,-4000.0,-611.0,4000.0
-2401.0,-72.0,-144.0,-4000.0,-4000.0,-4000.0,-124.0,4000.0
1155.0,-59.0,-129.0,-4000.0,-4000.0,-3405.0,303.0,4000.0
2518.0,-75.0,-153.0,-4000.0,-4000.0,-4000.0,-261.0,4000.0
3117.0,-42.0,-257.0,-4000.0,-3274.0,-4000.0,120.0,4000.0
2288.0,8.0,-563.0,-4000.0,1032.0,-4000.0,48.0,4000.0
1280.0,52.0,-466.0,-4000.0,4000.0,-2673.0,69.0,3898.0
530.0,122.0,-228.0,-4000.0,4000.0,-4000.0,170.0,3404.0
-9.0,150.0,-55.0,-2574.0,4000.0,-4000.0,-320.0,2575.0
-35.0,146.0,-81.0,-147.0,4000.0,-4000.0,-107.0,1044.0
-314.0,215.0,-217.0,238.0,4000.0,-4000.0,-393.0,172.0
-599.0,298.0,20.0,714.0,4000.0,-4000.0,-473.0,-562.0
-696.0,294.0,34.0,711.0,3595.0,-4000.0,-517.0,-1381.0
-470.0,211.0,280.0,472.0,-3391.0,-3514.0,-482.0,-1839.0
-404.0,143.0,582.0,172.0,-4000.0,-4000.0,-417.0,-2392.0
-311.0,157.0,500.0,-69.0,-4000.0,-4000.0,-717.0,-2537.0
-144.0,162.0,441.0,207.0,-4000.0,-4000.0,-1011.0,-3057.0
-25.0,152.0,376.0,929.0,-4000.0,-3750.0,-1309.0,-3060.0
38.0,168.0,345.0,1350.0,-4000.0,576.0,-1397.0,-3333.0
68.0,117.0,-116.0,1210.0,-4000.0,1601.0,-1848.0,-3593.0
131.0,86.0,-585.0,1509.0,-4000.0,1799.0,-2182.0,-3504.0
139.0,135.0,-667.0,2127.0,-4000.0,2442.0,-2388.0,-3333.0
222.0,-4.0,-490.0,2404.0,-4000.0,2580.0,-2237.0,-3113.0
155.0,-162.0,-78.0,2644.0,-4000.0,3265.0,-2146.0,-2995.0
103.0,-228.0,52.0,2933.0,-4000.0,3491.0,-2107.0,-2682.0
125.0,-383.0,121.0,2722.0,-4000.0,3621.0,-1783.0,-2478.0
111.0,-552.0,186.0,1747.0,-4000.0,3463.0,-1533.0,-2324.0
176.0,-696.0,-54.0,634.0,-4000.0,3604.0,-1383.0,-1658.0
253.0,-520.0,-31.0,217.0,-4000.0,3770.0,-1246.0,-1127.0
275.0,-57.0,-1.0,661.0,-4000.0,4000.0,-1011.0,-753.0
187.0,60.0,8.0,1013.0,-2368.0,4000.0,-768.0,-518.0
97.0,-50.0,24.0,980.0,-869.0,3101.0,-455.0,-1143.0
-6.0,-28.0,-41.0,891.0,374.0,2382.0,-258.0,-1339.0
-56.0,172.0,-51.0,139.0,1340.0,1824.0,-88.0,-2016.0
3.0,233.0,-738.0,-348.0,1992.0,1824.0,225.0,-1984.0
36.0,256.0,-1268.0,-568.0,2225.0,2060.0,491.0,-1626.0
47.0,341.0,-473.0,-755.0,2060.0,2190.0,315.0,-1859.0
43.0,130.0,335.0,-704.0,2125.0,2189.0,229.0,-1204.0
43.0,209.0,838.0,-902.0,1768.0,2485.0,489.0,-606.0
43.0,451.0,1233.0,-806.0,1547.0,2888.0,421.0,-28.0
34.0,178.0,1088.0,-696.0,1604.0,3528.0,139.0,695.0
-29.0,-677.0,866.0,-586.0,2048.0,3345.0,-25.0,1338.0
-45.0,-1067.0,280.0,-397.0,2451.0,2112.0,-314.0,1532.0
-32.0,-640.0,-26.0,-182.0,2646.0,403.0,420.0,1525.0
-128.0,215.0,35.0,-83.0,2825.0,-1821.0,1522.0,1763.0
-138.0,846.0,100.0,-30.0,3281.0,-2504.0,1602.0,2013.0
-92.0,256.0,284.0,228.0,3790.0,-2478.0,1396.0,1502.0
-60.0,-10.0,162.0,271.0,3859.0,-2592.0,365.0,804.0
-31.0,-91.0,51.0,232.0,4000.0,-2119.0,-15.0,719.0
-73.0,-337.0,-71.0,137.0,4000.0,-1367.0,883.0,695.0
-48.0,-575.0,-237.0,139.0,4000.0,-997.0,1581.0,686.0
-11.0,-1192.0,-631.0,193.0,4000.0,-510.0,1711.0,634.0
-42.0,-960.0,-804.0,272.0,4000.0,403.0,1410.0,710.0
27.0,-318.0,-383.0,366.0,4000.0,641.0,1646.0,861.0
66.0,290.0,-56.0,386.0,681.0,300.0,1314.0,1373.0
52.0,542.0,144.0,377.0,-4000.0,531.0,767.0,1532.0
44.0,392.0,31.0,364.0,-4000.0,961.0,1004.0,1195.0
-73.0,338.0,-529.0,394.0,-4000.0,831.0,1395.0,1388.0
-163.0,294.0,-827.0,276.0,-4000.0,967.0,1902.0,1437.0
-212.0,266.0,-425.0,276.0,-4000.0,771.0,2252.0,890.0
-253.0,210.0,83.0,298.0,-4000.0,1010.0,2811.0,338.0
-229.0,227.0,476.0,363.0,-4000.0,1733.0,3086.0,75.0
-132.0,160.0,956.0,490.0,-4000.0,2490.0,3217.0,-338.0
7.0,149.0,988.0,431.0,-4000.0,3474.0,3168.0,-1326.0
-102.0,120.0,830.0,320.0,-4000.0,4000.0,3103.0,-1494.0
-216.0,73.0,663.0,240.0,-3456.0,3148.0,3429.0,-1256.0
-190.0,63.0,396.0,140.0,-1665.0,58.0,3364.0,-1957.0
-138.0,42.0,47.0,-20.0,-31.0,-2689.0,3103.0,-2472.0
-114.0,66.0,-149.0,74.0,953.0,-4000.0,2956.0,-1058.0
-182.0,15.0,-85.0,161.0,929.0,-4000.0,2290.0,-419.0
-123.0,18.0,-252.0,-40.0,902.0,-4000.0,945.0,-2412.0
31.0,30.0,-324.0,-44.0,594.0,-4000.0,-126.0,-3113.0
199.0,19.0,-230.0,-59.0,570.0,-4000.0,-485.0,-3708.0
131.0,22.0,-393.0,-129.0,758.0,-672.0,-542.0,-3333.0
-37.0,-4.0,-389.0,-206.0,2289.0,309.0,-891.0,-3089.0
-168.0,-14.0,-274.0,-179.0,4000.0,31.0,-1664.0,-883.0
-262.0,15.0,-150.0,-94.0,4000.0,-771.0,-2622.0,2858.0
-190.0,11.0,0.0,-110.0,4000.0,346.0,-3184.0,4000.0
-155.0,18.0,-257.0,-168.0,4000.0,887.0,-3261.0,4000.0
-53.0,66.0,-743.0,-246.0,4000.0,228.0,-3053.0,4000.0
0.0,34.0,-1199.0,-310.0,4000.0,-1192.0,-2675.0,4000.0
14.0,-1.0,-1471.0,-251.0,4000.0,-1701.0,-2418.0,4000.0
61.0,-2.0,-1065.0,-66.0,3989.0,-1004.0,-1648.0,4000.0
15.0,-21.0,-804.0,-72.0,-3753.0,538.0,-989.0,666.0
4.0,-49.0,-667.0,-72.0,-4000.0,4000.0,-1249.0,-4000.0
134.0,-53.0,-30.0,37.0,-4000.0,4000.0,-1755.0,-4000.0
277.0,-50.0,541.0,-2.0,-4000.0,4000.0,-2158.0,-4000.0
227.0,-41.0,1168.0,-82.0,-4000.0,4000.0,-2675.0,-4000.0
108.0,-35.0,1375.0,-107.0,-1731.0,4000.0,-2756.0,-4000.0
31.0,-76.0,1560.0,-25.0,1983.0,4000.0,-2869.0,-4000.0
51.0,-101.0,1544.0,72.0,4000.0,4000.0,-3191.0,-4000.0
47.0,-75.0,1249.0,92.0,2907.0,4000.0,-3236.0,-4000.0
42.0,-86.0,1098.0,47.0,-557.0,4000.0,-3700.0,-4000.0
-40.0,-125.0,476.0,-140.0,-4000.0,4000.0,-4000.0,-4000.0
-120.0,-130.0,-310.0,-285.0,-4000.0,2377.0,-4000.0,-1772.0
-83.0,-111.0,-1171.0,-479.0,-4000.0,-741.0,-3191.0,-1310.0
-92.0,-79.0,-1492.0,-433.0,-4000.0,-1623.0,-2408.0,-908.0
-41.0,-40.0,-963.0,-131.0,-3303.0,-2838.0,-2869.0,-1135.0
24.0,-19.0,-405.0,12.0,1445.0,-3829.0,-2776.0,-1558.0
38.0,-54.0,-251.0,74.0,1091.0,-4000.0,-2728.0,-1298.0
-25.0,-49.0,-145.0,43.0,-195.0,-2867.0,-2418.0,-839.0
-165.0,-53.0,-10.0,32.0,-392.0,-982.0,-1497.0,267.0
-177.0,-30.0,284.0,93.0,-2403.0,-273.0,-1136.0,491.0
-150.0,53.0,450.0,53.0,-2145.0,403.0,-855.0,2172.0
-85.0,131.0,118.0,-61.0,-2611.0,788.0,-485.0,3831.0
82.0,208.0,-133.0,-128.0,-3391.0,603.0,53.0,4000.0
93.0,217.0,-257.0,-206.0,-2922.0,-378.0,276.0,4000.0
154.0,223.0,-450.0,-214.0,-2465.0,-2079.0,-418.0,4000.0
243.0,175.0,-1081.0,-201.0,-2791.0,-4000.0,-941.0,4000.0
147.0,46.0,-1347.0,-152.0,-4000.0,-4000.0,-363.0,4000.0
27.0,-23.0,-1166.0,-9.0,-4000.0,-2725.0,504.0,4000.0
-123.0,-47.0,-1630.0,-36.0,-4000.0,-2170.0,551.0,4000.0
-280.0,-59.0,-1171.0,-25.0,-4000.0,-2685.0,79.0,4000.0
-453.0,-125.0,4.0,-20.0,-4000.0,-3698.0,-206.0,4000.0
-417.0,-120.0,703.0,-19.0,-4000.0,-2839.0,-284.0,4000.0
-184.0,34.0,1636.0,6.0,-4000.0,-1586.0,-192.0,4000.0
-71.0,117.0,2094.0,-38.0,-4000.0,-459.0,571.0,4000.0
78.0,190.0,2081.0,-24.0,-4000.0,831.0,1092.0,2739.0
137.0,288.0,1704.0,-37.0,-4000.0,510.0,613.0,1281.0
147.0,305.0,1414.0,56.0,-4000.0,887.0,-4.0,286.0
142.0,290.0,956.0,223.0,-4000.0,1462.0,-876.0,522.0
159.0,276.0,195.0,268.0,-4000.0,608.0,-1043.0,686.0
178.0,212.0,-43.0,210.0,-2887.0,526.0,-601.0,246.0
163.0,72.0,-255.0,124.0,-705.0,758.0,-855.0,106.0
64.0,-71.0,-369.0,-127.0,1018.0,548.0,-1767.0,-618.0
-17.0,-45.0,-912.0,-428.0,2711.0,616.0,-2560.0,-1383.0
46.0,72.0,-2757.0,-560.0,4000.0,953.0,-1819.0,-1046.0
-13.0,108.0,-4000.0,-487.0,4000.0,1118.0,200.0,-360.0
-81.0,74.0,-4000.0,-312.0,4000.0,1140.0,1866.0,-248.0
-136.0,69.0,-847.0,-174.0,4000.0,1018.0,1076.0,-713.0
-209.0,138.0,1639.0,-121.0,4000.0,541.0,380.0,-1180.0
-331.0,186.0,3983.0,-100.0,4000.0,225.0,597.0,-1494.0
-190.0,152.0,4000.0,-141.0,4000.0,-476.0,154.0,-1691.0
86.0,63.0,4000.0,-137.0,4000.0,-1186.0,506.0,-842.0
123.0,-28.0,3119.0,-10.0,4000.0,-1440.0,767.0,39.0
198.0,-92.0,781.0,-14.0,4000.0,-1799.0,587.0,11.0
196.0,-30.0,-559.0,-10.0,4000.0,-2026.0,-82.0,-414.0
235.0,94.0,-2173.0,56.0,4000.0,-1727.0,136.0,-1259.0
447.0,160.0,-3864.0,81.0,4000.0,-1440.0,1334.0,-1256.0
608.0,233.0,-2692.0,96.0,4000.0,-972.0,2440.0,-333.0
334.0,182.0,-132.0,77.0,4000.0,-320.0,3282.0,876.0
-909.0,46.0,1509.0,99.0,4000.0,-156.0,3233.0,1907.0
-1947.0,-47.0,2396.0,66.0,4000.0,27.0,2944.0,2290.0
-634.0,-24.0,1908.0,-14.0,4000.0,335.0,2814.0,2498.0
733.0,-11.0,1571.0,-71.0,4000.0,311.0,2682.0,2218.0
1246.0,20.0,760.0,-98.0,4000.0,56.0,2647.0,2025.0
1488.0,163.0,-20.0,-37.0,4000.0,286.0,3347.0,2248.0
719.0,191.0,114.0,51.0,4000.0,660.0,3477.0,2249.0
416.0,182.0,336.0,60.0,4000.0,636.0,2682.0,1833.0
-25.0,182.0,253.0,3.0,3772.0,636.0,2190.0,751.0
-163.0,261.0,-369.0,-17.0,3399.0,719.0,1921.0,621.0
-191.0,130.0,-747.0,-16.0,2955.0,793.0,1280.0,914.0
-225.0,-109.0,-1073.0,-14.0,2491.0,771.0,750.0,1403.0
8.0,-200.0,-1769.0,-60.0,1995.0,823.0,1070.0,1898.0
-234.0,-300.0,-2782.0,-110.0,1604.0,961.0,1548.0,1399.0
-451.0,-405.0,-2151.0,-119.0,1333.0,1214.0,1996.0,1411.0
-706.0,-440.0,-239.0,-133.0,1071.0,1798.0,2125.0,1221.0
-714.0,-236.0,1178.0,-165.0,766.0,2447.0,1656.0,863.0
-437.0,-47.0,2147.0,-100.0,402.0,3101.0,1223.0,634.0
-296.0,-45.0,2225.0,25.0,79.0,3474.0,1052.0,434.0
-215.0,2.0,1543.0,-10.0,-99.0,2550.0,123.0,339.0
-59.0,20.0,429.0,-110.0,-276.0,1018.0,-1793.0,58.0
56.0,47.0,-379.0,-96.0,-153.0,-119.0,-3326.0,176.0
151.0,75.0,-768.0,-97.0,27.0,-2209.0,-3766.0,541.0
228.0,57.0,-507.0,-6.0,26.0,-4000.0,-3196.0,1286.0
274.0,46.0,-292.0,34.0,43.0,-3879.0,-1793.0,2819.0
247.0,-28.0,-298.0,-12.0,-183.0,-2383.0,-680.0,4000.0
228.0,-21.0,-425.0,7.0,-281.0,-1780.0,-176.0,4000.0
184.0,-37.0,-2216.0,-13.0,-354.0,-1651.0,732.0,4000.0
35.0,-214.0,-2782.0,32.0,-516.0,-1135.0,1353.0,4000.0
-27.0,-280.0,-841.0,62.0,-474.0,-786.0,1164.0,4000.0
-4.0,-198.0,152.0,77.0,-443.0,-350.0,1379.0,4000.0
36.0,-175.0,1062.0,72.0,-208.0,-393.0,1902.0,4000.0
64.0,-102.0,1561.0,132.0,-116.0,-72.0,1866.0,1346.0
49.0,-84.0,1192.0,142.0,-478.0,71.0,2318.0,-2024.0
71.0,-40.0,792.0,103.0,-1121.0,183.0,2444.0,-4000.0
69.0,39.0,202.0,118.0,-1455.0,367.0,2631.0,-4000.0
37.0,-3.0,26.0,126.0,-1313.0,331.0,3477.0,-4000.0
6.0,17.0,-170.0,142.0,-1951.0,423.0,4000.0,-4000.0
-18.0,-27.0,119.0,89.0,-2735.0,415.0,4000.0,-4000.0
-35.0,-28.0,37.0,7.0,-2676.0,555.0,4000.0,-4000.0
-69.0,-12.0,-489.0,-14.0,-2953.0,571.0,4000.0,-4000.0
-56.0,-3.0,-1022.0,34.0,-3767.0,719.0,4000.0,-4000.0
-69.0,-39.0,-2300.0,40.0,-4000.0,823.0,4000.0,-4000.0
-49.0,-136.0,-2462.0,18.0,-4000.0,929.0,4000.0,-4000.0
-12.0,-163.0,-603.0,15.0,-4000.0,1033.0,4000.0,-4000.0
-67.0,-199.0,850.0,-15.0,-4000.0,1026.0,4000.0,-4000.0
-58.0,-138.0,1770.0,-100.0,-4000.0,1012.0,4000.0,-4000.0
13.0,-91.0,1119.0,-167.0,-4000.0,953.0,3347.0,-4000.0
-7.0,-53.0,-1406.0,-212.0,-4000.0,766.0,1640.0,-3089.0
6.0,-15.0,-1237.0,-202.0,-4000.0,557.0,136.0,-2324.0
20.0,9.0,836.0,-166.0,-4000.0,427.0,-1433.0,-1709.0
-1.0,30.0,1900.0,-146.0,-4000.0,246.0,-2465.0,-1123.0
-16.0,60.0,1158.0,-186.0,-4000.0,185.0,-2675.0,-1326.0
20.0,188.0,-1069.0,-148.0,-2931.0,-349.0,-3277.0,-2849.0
130.0,329.0,-1881.0,-68.0,-2187.0,-810.0,-4000.0,-3760.0
108.0,381.0,-580.0,-121.0,-2180.0,-849.0,-4000.0,-4000.0
149.0,355.0,556.0,-106.0,-2010.0,-640.0,-4000.0,-3649.0
131.0,158.0,2094.0,-129.0,-1588.0,-287.0,-4000.0,-2128.0
-5.0,-95.0,2978.0,-226.0,-1520.0,-118.0,-4000.0,-599.0
31.0,-176.0,1756.0,-397.0,-1853.0,307.0,-4000.0,399.0
23.0,-199.0,432.0,-503.0,-1945.0,96.0,-4000.0,1263.0
-109.0,-159.0,-10.0,-251.0,-1121.0,-354.0,-4000.0,1371.0
-188.0,-127.0,19.0,10.0,-242.0,-266.0,-4000.0,1446.0
-162.0,-145.0,-866.0,91.0,183.0,-346.0,-4000.0,2107.0
-185.0,-104.0,-2306.0,85.0,375.0,-481.0,-4000.0,1574.0
-113.0,29.0,-2639.0,65.0,455.0,-568.0,-4000.0,1403.0
-9.0,125.0,-541.0,81.0,444.0,-499.0,-4000.0,670.0
-39.0,72.0,541.0,84.0,348.0,-334.0,-4000.0,-431.0
-2.0,62.0,362.0,67.0,367.0,-308.0,-4000.0,-180.0
17.0,87.0,207.0,28.0,627.0,-436.0,-4000.0,-529.0
-11.0,80.0,89.0,15.0,823.0,-423.0,-4000.0,-411.0
-43.0,26.0,585.0,48.0,593.0,-532.0,-4000.0,-543.0
-28.0,13.0,279.0,53.0,367.0,-411.0,-4000.0,-370.0
4.0,70.0,333.0,87.0,440.0,-157.0,-4000.0,673.0
23.0,102.0,-57.0,116.0,335.0,-348.0,-4000.0,925.0
30.0,93.0,-259.0,170.0,519.0,-273.0,-4000.0,1779.0
-25.0,-78.0,57.0,210.0,641.0,-95.0,-4000.0,2770.0
-93.0,-234.0,343.0,158.0,130.0,-107.0,-2756.0,3291.0
-96.0,-151.0,402.0,144.0,-345.0,-107.0,-1511.0,3781.0
27.0,-3.0,-60.0,168.0,-650.0,-10.0,-876.0,3487.0
69.0,71.0,-393.0,181.0,-850.0,0.0,-601.0,3065.0
27.0,95.0,-418.0,158.0,-1312.0,178.0,-652.0,2237.0
35.0,160.0,202.0,126.0,-2056.0,197.0,-473.0,1446.0
60.0,211.0,646.0,160.0,-2160.0,119.0,-275.0,831.0
123.0,181.0,584.0,169.0,-1918.0,368.0,-60.0,-1365.0
139.0,147.0,252.0,107.0,-2472.0,206.0,248.0,-4000.0
89.0,101.0,191.0,80.0,-2777.0,100.0,303.0,-4000.0
-16.0,77.0,296.0,85.0,-1512.0,189.0,497.0,-4000.0
-152.0,111.0,212.0,63.0,-33.0,197.0,684.0,-4000.0
-181.0,108.0,95.0,39.0,987.0,231.0,823.0,-4000.0
-121.0,50.0,-169.0,27.0,2578.0,262.0,1007.0,-4000.0
257.0,-8.0,-666.0,5.0,4000.0,195.0,1158.0,-4000.0
627.0,-43.0,-781.0,-53.0,4000.0,-6.0,1288.0,-4000.0
595.0,-51.0,34.0,-48.0,4000.0,-204.0,1418.0,-4000.0
90.0,-40.0,214.0,-31.0,4000.0,-336.0,1605.0,-4000.0
-915.0,-16.0,-85.0,-57.0,4000.0,-334.0,1786.0,-1772.0
-889.0,-16.0,-67.0,132.0,4000.0,-190.0,1984.0,781.0
12.0,4.0,-56.0,341.0,4000.0,-77.0,2190.0,2183.0
302.0,-18.0,119.0,116.0,4000.0,-23.0,2379.0,3593.0
594.0,-53.0,260.0,-200.0,4000.0,10.0,2364.0,4000.0
489.0,-48.0,317.0,-357.0,3606.0,24.0,2321.0,4000.0
-445.0,-58.0,244.0,-453.0,2842.0,131.0,2420.0,4000.0
-719.0,-67.0,253.0,-316.0,2448.0,201.0,2426.0,4000.0
177.0,-70.0,172.0,-226.0,2165.0,-141.0,2379.0,4000.0
779.0,-56.0,95.0,-171.0,1734.0,-379.0,2449.0,4000.0
789.0,-63.0,98.0,-101.0,2255.0,26.0,2517.0,4000.0
668.0,-58.0,60.0,-42.0,887.0,148.0,2579.0,4000.0
199.0,-62.0,1.0,73.0,-268.0,0.0,2647.0,4000.0
-154.0,-18.0,-104.0,96.0,1097.0,355.0,2761.0,4000.0
-670.0,-7.0,-159.0,23.0,23.0,398.0,2973.0,4000.0
-1365.0,-5.0,-257.0,-33.0,308.0,-348.0,3270.0,4000.0
-1622.0,34.0,-442.0,-33.0,424.0,-521.0,3559.0,4000.0
-566.0,33.0,-954.0,-59.0,-105.0,-442.0,3860.0,3469.0
228.0,38.0,-1192.0,-39.0,24.0,-282.0,4000.0,2966.0
457.0,15.0,-551.0,-39.0,-523.0,47.0,4000.0,2219.0
595.0,35.0,-257.0,-24.0,-380.0,131.0,4000.0,3161.0
129.0,63.0,-277.0,-5.0,-924.0,576.0,4000.0,4000.0
97.0,147.0,741.0,6.0,-818.0,701.0,3885.0,4000.0
-147.0,175.0,857.0,32.0,-782.0,563.0,3708.0,2013.0
-164.0,182.0,104.0,36.0,-686.0,351.0,3411.0,322.0
-46.0,228.0,671.0,31.0,-686.0,132.0,3151.0,-482.0
-59.0,172.0,793.0,-26.0,-847.0,81.0,2908.0,-1111.0
45.0,87.0,728.0,-50.0,-734.0,104.0,2684.0,-202.0
38.0,20.0,410.0,-21.0,-645.0,237.0,2429.0,302.0
82.0,-74.0,-414.0,32.0,-653.0,138.0,2086.0,751.0
-86.0,-296.0,-346.0,19.0,-883.0,73.0,1800.0,987.0
-180.0,-500.0,-557.0,-8.0,-921.0,-30.0,1475.0,1403.0
-215.0,-505.0,-776.0,19.0,-1109.0,-144.0,1190.0,2107.0
-75.0,-444.0,-645.0,-19.0,-920.0,-65.0,934.0,1867.0
14.0,-410.0,-568.0,-26.0,-681.0,53.0,683.0,1142.0
61.0,-318.0,154.0,-20.0,-502.0,177.0,470.0,348.0
165.0,-318.0,621.0,-31.0,-681.0,219.0,329.0,108.0
77.0,-375.0,410.0,-28.0,-1202.0,326.0,238.0,-207.0
-258.0,-318.0,197.0,-24.0,-1601.0,439.0,85.0,-594.0
-580.0,-157.0,-151.0,-4.0,-1756.0,480.0,129.0,-1190.0
-620.0,17.0,77.0,-55.0,-1443.0,457.0,506.0,-1520.0
-580.0,41.0,-696.0,-42.0,-1255.0,276.0,1007.0,-1558.0
-195.0,78.0,-2483.0,-51.0,-1123.0,106.0,1592.0,-1632.0
302.0,115.0,-1732.0,-95.0,-983.0,-76.0,2086.0,-1709.0
329.0,160.0,368.0,-121.0,-681.0,-204.0,2387.0,-1681.0
318.0,156.0,437.0,-127.0,-425.0,-94.0,2505.0,-1891.0
446.0,140.0,345.0,-44.0,-395.0,-35.0,2579.0,-1856.0
386.0,131.0,1347.0,-22.0,-409.0,10.0,2746.0,-1579.0
