-4000.0,-533.0,2653.0,687.0,-539.0,457.0,-226.0,-750.0
4000.0,-541.0,-41.0,565.0,12.0,463.0,-212.0,890.0
4000.0,-541.0,-2871.0,805.0,550.0,596.0,-227.0,1334.0
4000.0,-726.0,-3911.0,1045.0,1405.0,791.0,-205.0,2310.0
4000.0,-716.0,-4000.0,1080.0,1865.0,875.0,-224.0,1846.0
4000.0,-686.0,-4000.0,1013.0,1639.0,432.0,-192.0,1012.0
2922.0,-539.0,-4000.0,974.0,1188.0,-48.0,-193.0,-254.0
147.0,-375.0,-4000.0,1249.0,953.0,-98.0,-149.0,-67.0
-1479.0,-176.0,-4000.0,1761.0,1091.0,267.0,10.0,1128.0
-1918.0,125.0,-2542.0,2281.0,947.0,246.0,10.0,1728.0
-3850.0,446.0,1387.0,1436.0,489.0,57.0,-30.0,2563.0
-4000.0,941.0,4000.0,518.0,224.0,54.0,-29.0,2754.0
-3413.0,1249.0,4000.0,59.0,-60.0,333.0,-21.0,2835.0
-2826.0,1128.0,3185.0,-263.0,-534.0,837.0,83.0,2804.0
-2958.0,781.0,2006.0,195.0,-941.0,701.0,105.0,2510.0
-2350.0,263.0,1296.0,-147.0,-1169.0,622.0,90.0,2095.0
-2401.0,-142.0,1119.0,-614.0,-1142.0,-47.0,79.0,1456.0
-2439.0,-236.0,728.0,-849.0,-1179.0,-786.0,10.0,1077.0
-1540.0,-209.0,360.0,-1421.0,-1272.0,-556.0,60.0,817.0
-784.0,-217.0,-11.0,-1329.0,-1333.0,-641.0,81.0,404.0
149.0,-207.0,-466.0,-1075.0,-1528.0,-900.0,116.0,53.0
315.0,-200.0,-931.0,-641.0,-1915.0,-867.0,116.0,-159.0
334.0,-159.0,-1404.0,-442.0,-2405.0,-1161.0,73.0,-137.0
-59.0,-179.0,-1362.0,-550.0,-2776.0,-1135.0,97.0,-83.0
-365.0,-163.0,-1349.0,-379.0,-2741.0,50.0,34.0,-43.0
-779.0,-106.0,-1557.0,-146.0,-2550.0,177.0,33.0,-114.0
-1918.0,-82.0,-1797.0,337.0,-2623.0,-112.0,105.0,-170.0
-2499.0,-55.0,-2216.0,262.0,-2806.0,254.0,181.0,-254.0
-2049.0,-14.0,-2020.0,234.0,-2729.0,208.0,99.0,-531.0
-909.0,54.0,-1081.0,382.0,-2513.0,235.0,14.0,-934.0
1507.0,46.0,-147.0,390.0,-2316.0,235.0,-67.0,-1826.0
3302.0,26.0,147.0,467.0,-1919.0,169.0,-182.0,-3057.0
3573.0,8.0,-651.0,402.0,-1333.0,189.0,-171.0,-3333.0
2939.0,3.0,-2241.0,364.0,-730.0,160.0,-25.0,-2441.0
275.0,17.0,-3288.0,420.0,-425.0,259.0,26.0,-1801.0
-2191.0,121.0,-3368.0,583.0,-490.0,216.0,-44.0,-1129.0
-2708.0,211.0,-3018.0,435.0,-677.0,105.0,78.0,-898.0
-2177.0,254.0,-2215.0,162.0,-395.0,56.0,99.0,-1078.0
-2345.0,347.0,-505.0,67.0,298.0,28.0,152.0,-496.0
-2220.0,325.0,2017.0,229.0,766.0,-12.0,197.0,-48.0
-425.0,188.0,2343.0,603.0,1121.0,-68.0,71.0,176.0
1572.0,157.0,654.0,1053.0,1315.0,-182.0,113.0,1077.0
3365.0,134.0,-1748.0,949.0,953.0,-399.0,155.0,2183.0
4000.0,-57.0,-3872.0,329.0,627.0,-571.0,22.0,1833.0
2192.0,-212.0,-1231.0,-225.0,468.0,-565.0,-2.0,1446.0
-883.0,-293.0,4000.0,-560.0,532.0,-403.0,17.0,1541.0
-3180.0,-239.0,4000.0,-604.0,1292.0,-210.0,-60.0,1252.0
-2761.0,-47.0,4000.0,-520.0,1398.0,-125.0,-1.0,1091.0
2092.0,-57.0,4000.0,-540.0,1051.0,-67.0,70.0,831.0
4000.0,-214.0,4000.0,-625.0,1142.0,19.0,191.0,569.0
4000.0,-210.0,2783.0,-249.0,1604.0,124.0,355.0,207.0
4000.0,-71.0,1133.0,121.0,2695.0,326.0,497.0,50.0
3094.0,16.0,99.0,105.0,3476.0,497.0,665.0,-79.0
1384.0,26.0,-1166.0,163.0,4000.0,788.0,595.0,-305.0
361.0,79.0,-1492.0,720.0,4000.0,853.0,425.0,131.0
-327.0,187.0,-1714.0,598.0,4000.0,506.0,429.0,556.0
-2985.0,460.0,-2344.0,-36.0,3281.0,248.0,480.0,456.0
-4000.0,666.0,-3550.0,-285.0,2307.0,43.0,464.0,629.0
-4000.0,681.0,-4000.0,-515.0,1462.0,-232.0,365.0,719.0
-2643.0,615.0,-4000.0,-266.0,1198.0,-570.0,203.0,450.0
2028.0,534.0,-4000.0,-481.0,1312.0,-783.0,154.0,525.0
4000.0,388.0,-4000.0,-495.0,856.0,-1005.0,77.0,-32.0
4000.0,203.0,-3030.0,-143.0,193.0,-1316.0,51.0,-602.0
1130.0,205.0,-1617.0,87.0,804.0,-1310.0,50.0,-325.0
-1921.0,334.0,1098.0,467.0,1547.0,-1047.0,0.0,-392.0
-1682.0,607.0,3007.0,336.0,2255.0,-945.0,-107.0,-687.0
-2839.0,534.0,2746.0,290.0,1547.0,-1107.0,-63.0,-496.0
-2051.0,282.0,2070.0,16.0,345.0,-875.0,-58.0,-482.0
-555.0,278.0,1159.0,-555.0,-486.0,-375.0,-206.0,-604.0
-19.0,-188.0,-243.0,-822.0,-286.0,-251.0,-133.0,-651.0
-1457.0,-700.0,-912.0,-348.0,140.0,-175.0,-125.0,-627.0
-4000.0,-698.0,-799.0,287.0,-1109.0,62.0,-129.0,-798.0
-4000.0,-479.0,-752.0,27.0,-2507.0,148.0,-158.0,-1261.0
-3046.0,-399.0,-951.0,-266.0,-2688.0,223.0,-79.0,-1234.0
2092.0,-549.0,-308.0,-437.0,-1768.0,311.0,56.0,-401.0
4000.0,-682.0,2290.0,-659.0,-631.0,506.0,89.0,200.0
4000.0,-830.0,2616.0,-636.0,725.0,693.0,25.0,117.0
4000.0,-700.0,-1492.0,-652.0,1247.0,732.0,-17.0,344.0
1546.0,-417.0,-4000.0,-702.0,1857.0,822.0,77.0,473.0
-1401.0,-236.0,-4000.0,-604.0,1474.0,713.0,60.0,934.0
-1019.0,-93.0,-4000.0,-523.0,80.0,368.0,81.0,1248.0
-320.0,163.0,2681.0,-540.0,-673.0,274.0,61.0,450.0
163.0,451.0,4000.0,-101.0,-614.0,431.0,33.0,156.0
553.0,451.0,4000.0,634.0,479.0,619.0,54.0,308.0
-314.0,344.0,4000.0,1342.0,1063.0,795.0,38.0,94.0
-1300.0,248.0,4000.0,1957.0,1006.0,758.0,48.0,-2.0
-2173.0,138.0,1674.0,1749.0,641.0,701.0,41.0,-100.0
-1084.0,-7.0,92.0,1169.0,866.0,554.0,5.0,-180.0
-616.0,53.0,-625.0,891.0,618.0,265.0,1.0,-29.0
-407.0,282.0,-1128.0,693.0,36.0,126.0,16.0,12.0
-1788.0,382.0,-1557.0,137.0,-152.0,-22.0,1.0,135.0
-4000.0,331.0,-2072.0,-487.0,-356.0,-383.0,17.0,112.0
-4000.0,164.0,-2344.0,-1049.0,-476.0,-881.0,101.0,-53.0
-4000.0,-295.0,-2513.0,-2000.0,-838.0,-1005.0,78.0,-31.0
-4000.0,-640.0,-2216.0,-2509.0,-883.0,-597.0,64.0,-5.0
-4000.0,-677.0,-1227.0,-2015.0,-999.0,-74.0,103.0,111.0
-2256.0,-830.0,-515.0,-1240.0,-1120.0,102.0,45.0,621.0
4000.0,-763.0,-1231.0,-906.0,-1229.0,-143.0,9.0,961.0
4000.0,-566.0,-3884.0,-389.0,-1263.0,-167.0,-3.0,27.0
4000.0,-455.0,-4000.0,158.0,-1137.0,-59.0,32.0,-692.0
4000.0,-459.0,-4000.0,211.0,-1163.0,-188.0,65.0,-59.0
1172.0,-334.0,-4000.0,219.0,-1174.0,-282.0,6.0,600.0
1189.0,-89.0,-4000.0,-24.0,-1255.0,-125.0,-30.0,470.0
4000.0,151.0,-466.0,-71.0,-1255.0,2.0,-78.0,-186.0
4000.0,475.0,4000.0,-25.0,-1202.0,-51.0,-190.0,-1111.0
4000.0,837.0,4000.0,15.0,-1142.0,17.0,-258.0,-2427.0
4000.0,920.0,4000.0,170.0,-1052.0,62.0,-104.0,-4000.0
3884.0,737.0,4000.0,144.0,-900.0,35.0,220.0,-4000.0
-1219.0,761.0,1224.0,282.0,-705.0,-10.0,297.0,-4000.0
-4000.0,686.0,-4000.0,500.0,-465.0,-30.0,220.0,-931.0
-4000.0,420.0,-4000.0,618.0,-148.0,-19.0,220.0,1286.0
-4000.0,279.0,-4000.0,771.0,505.0,-40.0,214.0,3065.0
-4000.0,374.0,-4000.0,988.0,804.0,-3.0,213.0,4000.0
-4000.0,460.0,4000.0,1145.0,497.0,67.0,166.0,4000.0
-4000.0,323.0,4000.0,1097.0,554.0,196.0,102.0,2835.0
-4000.0,160.0,4000.0,949.0,428.0,327.0,40.0,2183.0
-4000.0,90.0,4000.0,821.0,365.0,398.0,-14.0,1836.0
-3022.0,-1.0,4000.0,681.0,-270.0,376.0,-33.0,1901.0
-2659.0,-46.0,4000.0,569.0,-1653.0,336.0,-52.0,1769.0
-4000.0,-215.0,4000.0,447.0,-2303.0,237.0,-109.0,1462.0
-4000.0,-503.0,4000.0,223.0,-2108.0,106.0,-175.0,1272.0
-4000.0,-671.0,1562.0,2.0,-1978.0,-43.0,-192.0,896.0
-1853.0,-747.0,-2151.0,-85.0,-1740.0,-178.0,-198.0,765.0
1606.0,-684.0,-4000.0,-273.0,-647.0,-86.0,-221.0,487.0
2078.0,-535.0,-4000.0,-604.0,-318.0,94.0,-202.0,654.0
4000.0,-403.0,-4000.0,-719.0,58.0,207.0,-214.0,53.0
4000.0,-303.0,-4000.0,-742.0,224.0,245.0,-194.0,-1534.0
4000.0,-179.0,-4000.0,-719.0,314.0,246.0,-147.0,-2146.0
4000.0,-141.0,-4000.0,-544.0,1156.0,286.0,-137.0,-1058.0
2857.0,-97.0,-4000.0,-397.0,1488.0,548.0,-84.0,-92.0
1361.0,145.0,-4000.0,-315.0,1527.0,693.0,-76.0,784.0
-2096.0,321.0,-4000.0,-249.0,998.0,445.0,-107.0,1686.0
-4000.0,341.0,-4000.0,-137.0,101.0,419.0,-149.0,2689.0
-4000.0,343.0,-4000.0,-48.0,-665.0,445.0,-33.0,3656.0
-1105.0,162.0,-4000.0,16.0,-744.0,368.0,126.0,1437.0
-4000.0,-36.0,-4000.0,83.0,-83.0,557.0,69.0,-1005.0
-4000.0,-49.0,-3872.0,132.0,570.0,497.0,-25.0,-990.0
-2582.0,-104.0,-2513.0,134.0,1056.0,368.0,-16.0,-3268.0
4000.0,-131.0,-976.0,68.0,1032.0,758.0,58.0,-4000.0
4000.0,-131.0,2412.0,100.0,375.0,795.0,100.0,-4000.0
4000.0,-181.0,2160.0,166.0,-616.0,520.0,70.0,-3935.0
-3799.0,-232.0,193.0,187.0,-523.0,571.0,24.0,-1339.0
-4000.0,-234.0,-1678.0,189.0,271.0,722.0,70.0,1337.0
-4000.0,-131.0,-2370.0,104.0,-345.0,480.0,14.0,1638.0
4000.0,57.0,-3954.0,-50.0,-1039.0,-167.0,-12.0,1963.0
4000.0,25.0,-4000.0,-88.0,-1253.0,-379.0,14.0,2078.0
4000.0,-226.0,533.0,-102.0,-1200.0,-362.0,-2.0,1716.0
4000.0,-342.0,4000.0,-319.0,-679.0,-167.0,40.0,1399.0
4000.0,-346.0,4000.0,-498.0,635.0,197.0,12.0,426.0
2809.0,-220.0,4000.0,-485.0,2317.0,311.0,7.0,-10.0
1358.0,-93.0,4000.0,-433.0,2618.0,203.0,-21.0,465.0
888.0,64.0,4000.0,-322.0,2176.0,-89.0,-17.0,976.0
-3093.0,420.0,4000.0,-202.0,1462.0,-178.0,3.0,564.0
-4000.0,855.0,4000.0,-220.0,1012.0,-213.0,-2.0,817.0
-4000.0,1096.0,4000.0,-194.0,692.0,-220.0,42.0,700.0
-4000.0,967.0,4000.0,-102.0,375.0,-253.0,90.0,600.0
-4000.0,876.0,2333.0,23.0,375.0,-269.0,77.0,760.0
-4000.0,693.0,-1748.0,190.0,547.0,-159.0,4.0,426.0
-3099.0,485.0,-1746.0,245.0,589.0,-178.0,-67.0,788.0
-2903.0,290.0,-1419.0,261.0,664.0,-216.0,-152.0,308.0
-2151.0,67.0,-912.0,254.0,790.0,-266.0,-194.0,-1078.0
-2140.0,-38.0,-1452.0,290.0,817.0,-399.0,-195.0,-2812.0
-1605.0,-175.0,-2123.0,451.0,880.0,-449.0,-181.0,-3513.0
-1088.0,-236.0,-3697.0,558.0,859.0,-409.0,-28.0,-3514.0
-445.0,-422.0,-4000.0,442.0,1182.0,-440.0,286.0,-3545.0
-396.0,-570.0,-4000.0,270.0,1474.0,-126.0,376.0,-3073.0
-209.0,-551.0,-4000.0,45.0,1466.0,9.0,220.0,-1445.0
-83.0,-462.0,-4000.0,-222.0,1336.0,-152.0,223.0,352.0
-91.0,-470.0,-4000.0,-245.0,1254.0,103.0,248.0,590.0
74.0,-521.0,-4000.0,25.0,1183.0,203.0,191.0,1698.0
-31.0,-444.0,-4000.0,255.0,1156.0,216.0,126.0,2883.0
80.0,-318.0,-3355.0,204.0,635.0,225.0,116.0,3196.0
-171.0,-225.0,-2953.0,-6.0,93.0,133.0,136.0,3552.0
-183.0,-7.0,-2344.0,-328.0,165.0,-135.0,87.0,2948.0
-86.0,424.0,-1982.0,-637.0,89.0,-546.0,10.0,2445.0
26.0,589.0,-2123.0,-745.0,431.0,-926.0,-23.0,1895.0
-158.0,569.0,-2057.0,-637.0,815.0,-1461.0,-15.0,1346.0
-388.0,717.0,-1881.0,-324.0,877.0,-1701.0,-26.0,1006.0
-502.0,696.0,-3730.0,46.0,823.0,-1304.0,-66.0,564.0
-544.0,460.0,-4000.0,260.0,790.0,-325.0,-117.0,264.0
-584.0,142.0,-2438.0,276.0,654.0,641.0,-154.0,-221.0
-178.0,-154.0,2030.0,189.0,227.0,1254.0,-175.0,-427.0
1559.0,-633.0,3510.0,95.0,-20.0,1821.0,-176.0,-730.0
1051.0,-1008.0,-1476.0,6.0,-288.0,2056.0,-143.0,-918.0
-4000.0,-1147.0,-4000.0,-66.0,-547.0,1409.0,-89.0,-1078.0
-4000.0,-1277.0,-938.0,-136.0,-649.0,165.0,-89.0,-1279.0
-2411.0,-1322.0,4000.0,-271.0,-812.0,-596.0,-48.0,-1518.0
4000.0,-1328.0,3434.0,-584.0,-947.0,-771.0,-4.0,-1755.0
4000.0,-1113.0,4000.0,-689.0,-1142.0,-940.0,-32.0,-1839.0
4000.0,-937.0,4000.0,-501.0,-1426.0,-1434.0,-6.0,-2016.0
4000.0,-698.0,4000.0,-414.0,-1729.0,-1663.0,10.0,-2004.0
4000.0,-297.0,1562.0,-310.0,-1814.0,-630.0,-53.0,-1904.0
2614.0,98.0,-2241.0,-161.0,-1607.0,205.0,-44.0,-1723.0
-1495.0,471.0,2539.0,-28.0,-1638.0,288.0,26.0,-1461.0
-3019.0,849.0,4000.0,10.0,-1703.0,551.0,-15.0,-1196.0
-3164.0,1291.0,4000.0,53.0,-1609.0,398.0,8.0,-843.0
-2964.0,1445.0,4000.0,222.0,-1776.0,66.0,59.0,-453.0
-4000.0,1234.0,3847.0,337.0,-1885.0,25.0,36.0,-366.0
-3836.0,782.0,4000.0,337.0,-1766.0,-101.0,54.0,-392.0
-4000.0,321.0,793.0,341.0,-1636.0,-143.0,59.0,-232.0
-4000.0,85.0,-4000.0,388.0,-1853.0,-103.0,33.0,-183.0
-4000.0,129.0,-4000.0,305.0,-2561.0,-84.0,24.0,-162.0
-616.0,34.0,-4000.0,142.0,-2912.0,-33.0,85.0,-415.0
929.0,27.0,-4000.0,181.0,-3066.0,124.0,151.0,-713.0
4000.0,-34.0,-4000.0,341.0,-2598.0,441.0,204.0,-627.0
4000.0,-139.0,1900.0,442.0,-1849.0,658.0,216.0,-348.0
4000.0,-160.0,4000.0,533.0,-1601.0,750.0,197.0,-98.0
4000.0,-286.0,4000.0,378.0,-1398.0,784.0,181.0,-1514.0
3508.0,-234.0,4000.0,142.0,-1121.0,571.0,151.0,-3007.0
4.0,-183.0,4000.0,144.0,-352.0,235.0,160.0,-1469.0
-2581.0,108.0,4000.0,261.0,184.0,-7.0,207.0,196.0
-3270.0,536.0,4000.0,150.0,314.0,-161.0,189.0,241.0
-2773.0,731.0,606.0,-171.0,383.0,-228.0,220.0,847.0
-4000.0,621.0,-2216.0,-296.0,318.0,-202.0,220.0,863.0
-4000.0,460.0,-4000.0,-200.0,204.0,-188.0,179.0,846.0
-2049.0,465.0,-4000.0,115.0,147.0,-244.0,188.0,859.0
2396.0,517.0,-4000.0,365.0,141.0,-327.0,163.0,1142.0
1303.0,485.0,-4000.0,287.0,153.0,-337.0,139.0,2234.0
1346.0,451.0,-3795.0,-19.0,206.0,-279.0,104.0,2119.0
228.0,247.0,-1492.0,-263.0,230.0,-207.0,85.0,2237.0
-190.0,-69.0,385.0,-351.0,328.0,-130.0,31.0,2184.0
-28.0,-84.0,-252.0,-489.0,395.0,-172.0,-50.0,2054.0
424.0,-190.0,-941.0,-604.0,448.0,-238.0,-120.0,1901.0
961.0,-375.0,-1557.0,-790.0,509.0,-261.0,-124.0,983.0
-234.0,-432.0,-2847.0,-891.0,627.0,-250.0,-58.0,634.0
701.0,-444.0,-2835.0,-719.0,737.0,-224.0,-59.0,1216.0
-7.0,-438.0,-4000.0,-450.0,766.0,-310.0,-10.0,1112.0
473.0,-497.0,-3689.0,-133.0,815.0,-172.0,22.0,150.0
501.0,-419.0,-625.0,28.0,811.0,86.0,-60.0,229.0
370.0,-188.0,205.0,-64.0,837.0,248.0,-151.0,1150.0
399.0,-133.0,1544.0,-190.0,831.0,384.0,-179.0,1850.0
212.0,-179.0,2213.0,-168.0,866.0,376.0,-149.0,452.0
334.0,-218.0,-490.0,-22.0,888.0,404.0,-244.0,543.0
110.0,-258.0,-4000.0,87.0,896.0,358.0,-224.0,2497.0
227.0,-125.0,-2373.0,179.0,994.0,300.0,-66.0,352.0
-11.0,-22.0,2811.0,246.0,1163.0,368.0,-44.0,-1839.0
104.0,24.0,4000.0,262.0,1227.0,365.0,-26.0,-791.0
-81.0,105.0,4000.0,305.0,1201.0,280.0,58.0,781.0
-15.0,225.0,3302.0,285.0,1091.0,235.0,70.0,710.0
-85.0,411.0,1965.0,315.0,497.0,284.0,68.0,1026.0
-104.0,420.0,1084.0,394.0,-307.0,327.0,178.0,1541.0
-68.0,342.0,394.0,433.0,-679.0,336.0,203.0,860.0
-165.0,317.0,-26.0,459.0,-659.0,358.0,126.0,522.0
-120.0,256.0,-774.0,439.0,-215.0,348.0,107.0,-370.0
-219.0,199.0,-1476.0,417.0,-30.0,229.0,31.0,-1050.0
-114.0,173.0,-1878.0,421.0,-543.0,27.0,-11.0,-1375.0
-176.0,160.0,-1492.0,341.0,-188.0,-66.0,-42.0,-1310.0
-172.0,168.0,-914.0,227.0,789.0,1.0,-98.0,-622.0
-196.0,135.0,-505.0,116.0,1409.0,104.0,-131.0,252.0
-203.0,157.0,-185.0,-1.0,1970.0,107.0,-155.0,499.0
-203.0,136.0,-82.0,-85.0,1920.0,-27.0,-114.0,165.0
-193.0,273.0,248.0,-104.0,1395.0,-149.0,-106.0,94.0
-186.0,443.0,439.0,-116.0,176.0,-245.0,-152.0,-232.0
-188.0,371.0,606.0,-141.0,-150.0,-199.0,-176.0,-543.0
-160.0,249.0,585.0,-141.0,28.0,-147.0,-120.0,-618.0
-153.0,124.0,526.0,-149.0,-332.0,-87.0,-123.0,-340.0
-105.0,60.0,566.0,-152.0,-877.0,-47.0,-118.0,-1188.0
-92.0,29.0,476.0,-155.0,-1945.0,38.0,-88.0,-2601.0
-53.0,-71.0,467.0,-121.0,-1202.0,289.0,20.0,-2893.0
-75.0,-205.0,280.0,-140.0,424.0,525.0,150.0,-2601.0
-55.0,-183.0,163.0,-151.0,1287.0,594.0,152.0,-1567.0
-21.0,-69.0,-8.0,-122.0,1333.0,456.0,149.0,-973.0
21.0,-142.0,12.0,-143.0,1018.0,321.0,138.0,-305.0
24.0,-118.0,129.0,-188.0,1006.0,111.0,120.0,503.0
-41.0,-24.0,150.0,-198.0,-123.0,-20.0,56.0,532.0
-17.0,-125.0,164.0,-157.0,-1179.0,-100.0,110.0,961.0
-23.0,-114.0,95.0,-149.0,-228.0,-182.0,120.0,1598.0
-32.0,-125.0,158.0,-143.0,1006.0,-142.0,38.0,2013.0
-7.0,-108.0,147.0,-137.0,701.0,-200.0,51.0,1338.0
14.0,-100.0,190.0,-129.0,135.0,-222.0,-27.0,564.0
47.0,-125.0,240.0,-127.0,31.0,-135.0,-93.0,662.0
69.0,-162.0,374.0,-91.0,607.0,-57.0,-176.0,-69.0
17.0,-248.0,169.0,-70.0,1083.0,-23.0,-224.0,-2128.0
52.0,-228.0,-194.0,-75.0,998.0,38.0,-306.0,-3516.0
104.0,-244.0,-205.0,-68.0,1201.0,46.0,-407.0,-2893.0
165.0,-188.0,-203.0,-70.0,1207.0,48.0,-332.0,-1469.0
304.0,-79.0,-120.0,-62.0,1391.0,44.0,-350.0,-1856.0
250.0,103.0,-112.0,-62.0,1213.0,-20.0,-373.0,-2114.0
113.0,395.0,-82.0,-37.0,1213.0,-76.0,-294.0,409.0
67.0,583.0,-70.0,14.0,1148.0,-69.0,-154.0,707.0
9.0,439.0,0.0,-17.0,-295.0,64.0,-127.0,1286.0
4.0,105.0,67.0,-106.0,-1619.0,195.0,-143.0,2498.0
-46.0,-127.0,-25.0,-196.0,-2406.0,174.0,-93.0,1818.0
-141.0,-318.0,-32.0,-244.0,-2409.0,158.0,-55.0,1698.0
-176.0,-248.0,0.0,-178.0,-2318.0,178.0,91.0,1399.0
-63.0,-328.0,20.0,-28.0,-2465.0,127.0,220.0,1248.0
159.0,-345.0,55.0,69.0,-1390.0,66.0,217.0,825.0
277.0,-258.0,72.0,66.0,-225.0,-2.0,102.0,896.0
436.0,-432.0,107.0,23.0,264.0,-12.0,42.0,695.0
699.0,-414.0,172.0,-69.0,-360.0,78.0,50.0,438.0
660.0,-267.0,150.0,-68.0,-1117.0,158.0,181.0,518.0
438.0,-141.0,52.0,-18.0,-160.0,213.0,359.0,532.0
285.0,44.0,-29.0,2.0,811.0,241.0,346.0,536.0
-4.0,77.0,-45.0,44.0,537.0,191.0,343.0,261.0
-193.0,58.0,-46.0,34.0,288.0,53.0,271.0,218.0
-283.0,122.0,-28.0,56.0,403.0,-98.0,144.0,84.0
-482.0,82.0,-32.0,74.0,162.0,-247.0,-6.0,-13.0
-741.0,72.0,-5.0,84.0,253.0,-336.0,-129.0,-162.0
-828.0,55.0,0.0,182.0,406.0,-390.0,-181.0,-98.0
-816.0,46.0,-29.0,190.0,351.0,-482.0,2.0,-101.0
-604.0,68.0,47.0,133.0,202.0,-517.0,429.0,-290.0
-71.0,64.0,93.0,251.0,44.0,-476.0,707.0,-455.0
23.0,20.0,253.0,381.0,-10.0,-399.0,759.0,-508.0
106.0,2.0,719.0,104.0,66.0,-338.0,557.0,-334.0
249.0,30.0,1426.0,-227.0,26.0,-350.0,278.0,-3.0
201.0,20.0,1452.0,-218.0,-372.0,-332.0,138.0,658.0
269.0,19.0,177.0,-149.0,-742.0,-240.0,119.0,988.0
235.0,-38.0,-1101.0,-84.0,-862.0,-46.0,130.0,612.0
250.0,-32.0,-1541.0,-91.0,-650.0,69.0,220.0,-452.0
227.0,-21.0,-1268.0,-131.0,-418.0,138.0,398.0,-2035.0
202.0,-32.0,-847.0,-49.0,30.0,141.0,563.0,-2283.0
248.0,-15.0,-548.0,81.0,866.0,-16.0,759.0,-1012.0
444.0,-53.0,-297.0,92.0,1531.0,-145.0,782.0,-181.0
738.0,-36.0,-145.0,22.0,896.0,-262.0,637.0,106.0
825.0,-64.0,-144.0,42.0,-227.0,-147.0,380.0,-32.0
659.0,-77.0,-350.0,94.0,-168.0,-2.0,116.0,322.0
608.0,-109.0,-85.0,145.0,273.0,-61.0,-29.0,402.0
935.0,-131.0,231.0,113.0,586.0,-29.0,-151.0,391.0
543.0,-102.0,436.0,90.0,880.0,-65.0,-169.0,783.0
-166.0,-74.0,850.0,81.0,933.0,-186.0,-171.0,716.0
-419.0,-56.0,1458.0,61.0,733.0,-199.0,-154.0,794.0
-698.0,-42.0,1962.0,84.0,627.0,-198.0,-49.0,629.0
-104.0,30.0,624.0,99.0,837.0,-137.0,81.0,804.0
1450.0,91.0,-863.0,105.0,438.0,-85.0,191.0,876.0
3052.0,118.0,-1390.0,95.0,-1239.0,20.0,270.0,716.0
1689.0,93.0,-1602.0,144.0,-1951.0,140.0,339.0,629.0
-1604.0,106.0,-1008.0,134.0,-1052.0,74.0,319.0,503.0
-3608.0,103.0,-576.0,129.0,-1426.0,34.0,291.0,609.0
-4000.0,46.0,61.0,150.0,-1898.0,8.0,265.0,686.0
-3799.0,21.0,787.0,155.0,-608.0,-78.0,223.0,1199.0
-2773.0,-6.0,1571.0,170.0,526.0,-171.0,134.0,1793.0
-1481.0,8.0,1375.0,126.0,14.0,-192.0,25.0,1704.0
-550.0,-8.0,82.0,81.0,147.0,-141.0,-77.0,1112.0
-350.0,8.0,-716.0,-6.0,432.0,-110.0,-147.0,409.0
228.0,56.0,-1278.0,-59.0,-60.0,-47.0,-209.0,-948.0
508.0,47.0,-1101.0,-48.0,136.0,44.0,-290.0,-2656.0
855.0,60.0,-645.0,31.0,-105.0,142.0,-235.0,-1959.0
1059.0,69.0,-107.0,223.0,162.0,223.0,-116.0,-89.0
1384.0,67.0,195.0,255.0,576.0,303.0,67.0,-496.0
1365.0,82.0,-46.0,179.0,882.0,237.0,281.0,-614.0
733.0,90.0,18.0,77.0,1071.0,155.0,356.0,-1679.0
491.0,73.0,344.0,38.0,635.0,177.0,220.0,-2146.0
302.0,63.0,1224.0,55.0,103.0,213.0,48.0,-274.0
342.0,114.0,2395.0,24.0,-599.0,271.0,69.0,-227.0
277.0,134.0,2941.0,65.0,-947.0,237.0,71.0,-297.0
0.0,113.0,2095.0,87.0,-1259.0,229.0,67.0,-105.0
-87.0,113.0,657.0,32.0,-978.0,311.0,29.0,304.0
181.0,124.0,-490.0,-28.0,-125.0,339.0,-62.0,914.0
595.0,77.0,-963.0,-64.0,562.0,301.0,-29.0,719.0
692.0,5.0,-963.0,-107.0,722.0,96.0,-60.0,564.0
564.0,-50.0,-1321.0,-157.0,586.0,-29.0,-152.0,491.0
524.0,-73.0,-1276.0,-173.0,737.0,87.0,-298.0,389.0
365.0,-28.0,-1138.0,-131.0,424.0,124.0,-388.0,456.0
147.0,-7.0,-1785.0,-60.0,27.0,66.0,-355.0,569.0
-64.0,-36.0,-2216.0,-33.0,-1109.0,69.0,-266.0,596.0
-327.0,-77.0,-1492.0,-18.0,-2465.0,134.0,-69.0,621.0
-245.0,-60.0,-77.0,-10.0,-1247.0,179.0,-36.0,586.0
-258.0,-79.0,172.0,-65.0,314.0,80.0,9.0,418.0
-357.0,-63.0,-519.0,-62.0,758.0,-12.0,88.0,54.0
-41.0,-35.0,-601.0,-24.0,837.0,-2.0,-90.0,-449.0
71.0,-50.0,-645.0,-106.0,615.0,-81.0,-243.0,-1084.0
-4.0,-39.0,-121.0,-145.0,635.0,-200.0,-290.0,-1607.0
12.0,-56.0,225.0,-171.0,401.0,-208.0,-325.0,-1860.0
44.0,-48.0,175.0,-134.0,342.0,-169.0,-394.0,-1992.0
-10.0,-59.0,427.0,-83.0,213.0,-186.0,-378.0,-1924.0
-90.0,-44.0,573.0,-108.0,281.0,-195.0,-219.0,-1756.0
82.0,-27.0,598.0,-92.0,391.0,-173.0,-84.0,-1391.0
155.0,-23.0,450.0,-94.0,338.0,-157.0,-70.0,-936.0
147.0,-41.0,562.0,-104.0,375.0,-185.0,-86.0,-514.0
184.0,-31.0,454.0,-93.0,266.0,-182.0,-73.0,-166.0
204.0,1.0,288.0,-44.0,459.0,-143.0,-207.0,170.0
234.0,-27.0,299.0,-38.0,528.0,-135.0,-379.0,54.0
122.0,-28.0,296.0,-72.0,556.0,-113.0,-345.0,-471.0
93.0,3.0,172.0,-74.0,562.0,-98.0,-253.0,-718.0
216.0,-16.0,113.0,-107.0,458.0,-83.0,-282.0,-614.0
161.0,-26.0,200.0,-206.0,151.0,-35.0,-379.0,-232.0
412.0,-2.0,122.0,-312.0,-425.0,8.0,-449.0,491.0
543.0,0.0,139.0,-346.0,-686.0,0.0,-393.0,935.0
208.0,3.0,266.0,-260.0,-195.0,14.0,-260.0,882.0
300.0,-45.0,844.0,-167.0,42.0,10.0,-182.0,758.0
668.0,-70.0,1812.0,-167.0,-631.0,32.0,-167.0,235.0
888.0,-63.0,1574.0,-170.0,-1072.0,92.0,-204.0,519.0
-184.0,-76.0,-37.0,-200.0,-730.0,155.0,-281.0,825.0
-1127.0,-57.0,-976.0,-182.0,-417.0,308.0,-406.0,432.0
-1546.0,-37.0,-1388.0,-126.0,-136.0,271.0,-442.0,564.0
-1717.0,23.0,-1101.0,-89.0,466.0,197.0,-338.0,49.0
-1345.0,69.0,-711.0,-28.0,202.0,276.0,-145.0,-181.0
-1652.0,77.0,-566.0,-14.0,-183.0,348.0,-26.0,-142.0
-1616.0,47.0,-277.0,18.0,216.0,311.0,14.0,-248.0
-1540.0,66.0,-324.0,-21.0,896.0,197.0,-6.0,-291.0
-691.0,130.0,-120.0,-49.0,725.0,215.0,-10.0,-664.0
530.0,152.0,-200.0,-49.0,141.0,213.0,-13.0,-854.0
595.0,110.0,-380.0,-84.0,237.0,145.0,34.0,-1013.0
444.0,38.0,-253.0,-80.0,144.0,143.0,52.0,-934.0
408.0,-4.0,77.0,-87.0,143.0,123.0,15.0,-889.0
222.0,-29.0,299.0,-14.0,101.0,81.0,40.0,-683.0
167.0,-23.0,246.0,38.0,151.0,85.0,54.0,-220.0
121.0,-72.0,180.0,34.0,275.0,88.0,54.0,171.0
177.0,-84.0,124.0,-21.0,226.0,67.0,62.0,438.0
473.0,-99.0,128.0,-44.0,277.0,38.0,132.0,491.0
911.0,-136.0,107.0,-35.0,253.0,25.0,154.0,564.0
2614.0,-155.0,51.0,-7.0,310.0,2.0,172.0,751.0
4000.0,-210.0,41.0,105.0,267.0,-14.0,232.0,1026.0
4000.0,-214.0,92.0,77.0,169.0,17.0,229.0,1136.0
4000.0,-147.0,203.0,20.0,-28.0,32.0,266.0,1053.0
1095.0,-97.0,923.0,-57.0,-217.0,-4.0,315.0,455.0
-3115.0,-65.0,2094.0,-61.0,-268.0,33.0,374.0,29.0
-4000.0,-6.0,1501.0,-33.0,-190.0,221.0,380.0,124.0
-4000.0,33.0,-230.0,-78.0,196.0,262.0,315.0,79.0
-4000.0,87.0,-833.0,-72.0,528.0,180.0,268.0,391.0
-4000.0,190.0,-781.0,-70.0,562.0,154.0,229.0,535.0
-3099.0,209.0,-377.0,-49.0,373.0,61.0,203.0,332.0
-2570.0,172.0,-274.0,-48.0,177.0,58.0,236.0,361.0
-2043.0,173.0,-734.0,-22.0,188.0,143.0,276.0,338.0
-1156.0,188.0,-1036.0,9.0,440.0,223.0,271.0,409.0
-609.0,222.0,-674.0,-12.0,509.0,148.0,286.0,373.0
-233.0,170.0,-155.0,-24.0,310.0,-16.0,274.0,165.0
328.0,111.0,10.0,-18.0,214.0,-32.0,172.0,-12.0
778.0,135.0,541.0,-75.0,125.0,-58.0,18.0,-284.0
1307.0,79.0,1184.0,-88.0,64.0,-86.0,-175.0,-427.0
1737.0,9.0,1249.0,-24.0,56.0,-110.0,-226.0,-362.0
1754.0,-4.0,376.0,-1.0,-8.0,-162.0,-32.0,-88.0
1752.0,-30.0,-869.0,16.0,-20.0,-208.0,195.0,182.0
1637.0,-44.0,-1613.0,46.0,-55.0,-210.0,368.0,394.0
1319.0,-72.0,-1667.0,44.0,-217.0,-210.0,384.0,442.0
1124.0,-56.0,-1297.0,47.0,-354.0,-214.0,294.0,273.0
908.0,-23.0,-890.0,42.0,-374.0,-228.0,248.0,213.0
804.0,-35.0,-385.0,41.0,-211.0,-240.0,163.0,80.0
692.0,-51.0,34.0,59.0,-47.0,-275.0,162.0,-101.0
680.0,-69.0,26.0,68.0,5.0,-331.0,220.0,-130.0
647.0,-63.0,31.0,95.0,39.0,-362.0,325.0,-104.0
603.0,-27.0,-30.0,60.0,-2.0,-394.0,368.0,-54.0
626.0,-39.0,75.0,42.0,-5.0,-394.0,180.0,-99.0
603.0,-36.0,354.0,27.0,-64.0,-354.0,-111.0,-166.0
569.0,10.0,263.0,10.0,-345.0,-297.0,-308.0,-78.0
368.0,52.0,364.0,-1.0,-343.0,-211.0,-241.0,127.0
310.0,64.0,410.0,-39.0,-37.0,-66.0,-147.0,165.0
192.0,71.0,393.0,-19.0,23.0,-8.0,-1.0,66.0
72.0,43.0,384.0,-39.0,82.0,104.0,246.0,37.0
-14.0,0.0,331.0,-19.0,154.0,321.0,504.0,225.0
-157.0,-24.0,334.0,0.0,112.0,608.0,693.0,379.0
-158.0,-59.0,284.0,11.0,32.0,867.0,660.0,404.0
-110.0,-30.0,301.0,10.0,-52.0,1098.0,412.0,474.0
-37.0,36.0,253.0,6.0,-95.0,1273.0,123.0,239.0
181.0,70.0,234.0,28.0,-164.0,1287.0,-36.0,98.0
462.0,81.0,162.0,41.0,-196.0,1340.0,254.0,104.0
574.0,33.0,105.0,65.0,-307.0,1312.0,945.0,100.0
427.0,13.0,109.0,13.0,-354.0,1163.0,1510.0,225.0
144.0,12.0,102.0,4.0,-225.0,876.0,1605.0,63.0
-162.0,18.0,79.0,10.0,-203.0,595.0,1137.0,-126.0
-457.0,24.0,102.0,2.0,-228.0,376.0,394.0,-215.0
-645.0,38.0,402.0,-6.0,-251.0,172.0,-117.0,-254.0
-844.0,17.0,1237.0,-59.0,-311.0,47.0,-393.0,-195.0
-957.0,5.0,1574.0,-45.0,-425.0,-59.0,-280.0,-95.0
-1072.0,18.0,517.0,-57.0,-511.0,-228.0,51.0,39.0
-1039.0,-14.0,-494.0,-66.0,-418.0,-390.0,-216.0,-7.0
-901.0,-13.0,-971.0,-43.0,-333.0,-546.0,-784.0,-31.0
-765.0,10.0,-1101.0,-53.0,-395.0,-575.0,-1358.0,-170.0
-589.0,-3.0,-957.0,-35.0,-523.0,-423.0,-1716.0,-305.0
-493.0,-18.0,-841.0,-79.0,-673.0,-423.0,-1376.0,-223.0
-215.0,9.0,-535.0,-90.0,-681.0,-362.0,-579.0,-248.0
26.0,-24.0,-371.0,-59.0,-653.0,-262.0,46.0,-268.0
102.0,-48.0,-244.0,-19.0,-576.0,-224.0,477.0,-134.0
145.0,-78.0,-220.0,24.0,-400.0,-286.0,1060.0,165.0
159.0,-101.0,-512.0,-1.0,-273.0,-325.0,903.0,266.0
176.0,-55.0,-425.0,16.0,-155.0,-211.0,441.0,94.0
196.0,-42.0,-132.0,62.0,-180.0,-161.0,41.0,-82.0
212.0,-47.0,-89.0,34.0,-319.0,-92.0,-266.0,-5.0
239.0,-40.0,46.0,20.0,-372.0,-1.0,-290.0,-62.0
287.0,-34.0,163.0,16.0,-222.0,29.0,-198.0,-256.0
277.0,-52.0,218.0,6.0,180.0,57.0,271.0,-38.0
368.0,-39.0,172.0,5.0,528.0,41.0,427.0,176.0
371.0,-50.0,124.0,10.0,599.0,-63.0,64.0,203.0
11.0,-42.0,277.0,47.0,526.0,-89.0,-255.0,69.0
564.0,-39.0,560.0,60.0,485.0,-34.0,-327.0,58.0
1283.0,-32.0,390.0,34.0,713.0,-131.0,-204.0,-41.0
645.0,-19.0,-98.0,20.0,865.0,-214.0,-224.0,-218.0
64.0,-5.0,-200.0,-6.0,562.0,-129.0,-709.0,-80.0
-779.0,15.0,-219.0,-40.0,190.0,44.0,-1063.0,-183.0
-1211.0,2.0,-23.0,-54.0,206.0,152.0,-1162.0,-296.0
-1096.0,41.0,77.0,-52.0,651.0,184.0,-1063.0,-136.0
-779.0,57.0,67.0,-80.0,941.0,44.0,-485.0,174.0
1000.0,37.0,140.0,-49.0,792.0,58.0,-49.0,338.0
3365.0,30.0,152.0,-23.0,554.0,-48.0,114.0,425.0
3432.0,34.0,238.0,-59.0,462.0,-240.0,177.0,499.0
1172.0,41.0,128.0,-50.0,480.0,15.0,106.0,341.0
-233.0,26.0,-9.0,-40.0,415.0,123.0,246.0,473.0
-1349.0,43.0,-39.0,-25.0,342.0,137.0,563.0,170.0
-1031.0,43.0,-32.0,-30.0,237.0,113.0,642.0,-69.0
-341.0,38.0,-106.0,-17.0,140.0,33.0,759.0,82.0
-1622.0,49.0,-150.0,-30.0,67.0,-14.0,682.0,-101.0
-2773.0,57.0,-114.0,-23.0,31.0,-6.0,497.0,-79.0
-3344.0,84.0,-72.0,-45.0,32.0,57.0,844.0,111.0
-3347.0,105.0,46.0,-39.0,72.0,66.0,1483.0,491.0
-2903.0,122.0,180.0,-7.0,154.0,5.0,2058.0,629.0
-2114.0,132.0,272.0,-24.0,114.0,-39.0,1483.0,426.0
-896.0,156.0,385.0,-18.0,154.0,-123.0,554.0,239.0
-52.0,225.0,410.0,-67.0,247.0,-358.0,41.0,184.0
393.0,309.0,321.0,-81.0,270.0,-407.0,-404.0,-30.0
660.0,290.0,231.0,-51.0,310.0,-453.0,-188.0,25.0
888.0,210.0,-47.0,-55.0,348.0,-541.0,-352.0,203.0
1045.0,134.0,-59.0,-76.0,365.0,-580.0,-876.0,34.0
1116.0,98.0,207.0,-44.0,415.0,-663.0,-855.0,141.0
1181.0,62.0,100.0,-16.0,432.0,-602.0,-941.0,-92.0
929.0,40.0,157.0,-35.0,348.0,-685.0,-941.0,-192.0
686.0,33.0,203.0,-19.0,302.0,-810.0,-249.0,-82.0
782.0,-11.0,-292.0,18.0,255.0,-794.0,-206.0,-155.0
847.0,-23.0,-694.0,50.0,198.0,-602.0,-1119.0,-301.0
771.0,17.0,-676.0,22.0,224.0,-262.0,-1272.0,-394.0
660.0,-1.0,-440.0,20.0,180.0,-7.0,-1173.0,-343.0
430.0,-86.0,-380.0,-10.0,139.0,394.0,-1116.0,-226.0
382.0,-128.0,-124.0,-9.0,105.0,947.0,-1051.0,-109.0
440.0,-121.0,198.0,48.0,-34.0,1456.0,-1252.0,14.0
444.0,-160.0,136.0,44.0,-143.0,1963.0,-1851.0,97.0
550.0,-188.0,-120.0,80.0,-137.0,2447.0,-2465.0,-116.0
603.0,-166.0,-209.0,98.0,-17.0,2629.0,-2027.0,-50.0
508.0,-135.0,-297.0,134.0,-16.0,2512.0,-787.0,88.0
424.0,-83.0,-238.0,150.0,-60.0,2243.0,832.0,394.0
382.0,-3.0,77.0,88.0,-59.0,1734.0,1734.0,808.0
301.0,67.0,246.0,55.0,-136.0,1033.0,1406.0,811.0
220.0,102.0,546.0,67.0,-182.0,268.0,628.0,531.0
121.0,122.0,244.0,64.0,-234.0,-446.0,291.0,367.0
70.0,87.0,-316.0,48.0,-269.0,-1056.0,307.0,242.0
-17.0,51.0,-180.0,28.0,-309.0,-1511.0,666.0,95.0
-150.0,-73.0,385.0,0.0,-356.0,-1975.0,1010.0,74.0
-222.0,-174.0,429.0,-34.0,-350.0,-2353.0,1019.0,27.0
-221.0,-183.0,-303.0,-83.0,-395.0,-2624.0,1092.0,-61.0
-201.0,-305.0,-450.0,-46.0,-400.0,-2725.0,930.0,-90.0
-262.0,-333.0,-169.0,-19.0,-418.0,-2998.0,1033.0,43.0
-274.0,-267.0,-112.0,-19.0,-466.0,-3600.0,866.0,-51.0
-236.0,-110.0,-268.0,-51.0,-470.0,-4000.0,445.0,-209.0
-211.0,4.0,-324.0,-57.0,-486.0,-4000.0,416.0,-235.0
-236.0,-7.0,-172.0,-24.0,-481.0,-4000.0,160.0,-305.0
-193.0,-15.0,-67.0,-25.0,-490.0,-3506.0,54.0,-370.0
-127.0,-16.0,160.0,-61.0,-490.0,-2091.0,0.0,-292.0
-98.0,-43.0,504.0,-78.0,-425.0,376.0,-32.0,-319.0
-48.0,-79.0,253.0,-31.0,-385.0,2428.0,-385.0,-340.0
-52.0,-78.0,-212.0,-16.0,-360.0,3202.0,-946.0,-297.0
-64.0,-68.0,-145.0,-40.0,-383.0,3705.0,-1048.0,-360.0
-79.0,-75.0,-69.0,-87.0,-384.0,3808.0,-1097.0,-254.0
-59.0,-94.0,785.0,-71.0,-417.0,3361.0,-630.0,-240.0
-36.0,-33.0,1608.0,-86.0,-523.0,2953.0,331.0,-145.0
-21.0,-36.0,1119.0,-133.0,-551.0,2568.0,25.0,-170.0
-37.0,4.0,671.0,-103.0,-512.0,2255.0,24.0,-51.0
-58.0,25.0,-271.0,-90.0,-484.0,1919.0,557.0,64.0
-67.0,-18.0,-1166.0,-30.0,-501.0,1734.0,498.0,-126.0
-135.0,31.0,-1219.0,-19.0,-576.0,1795.0,1532.0,56.0
-171.0,25.0,-1557.0,-9.0,-602.0,2034.0,2309.0,87.0
-71.0,57.0,-906.0,13.0,-608.0,2373.0,1931.0,98.0
-4.0,96.0,186.0,5.0,-614.0,2124.0,945.0,102.0
-91.0,82.0,846.0,-5.0,-621.0,1579.0,216.0,-73.0
-29.0,57.0,915.0,-29.0,-730.0,1083.0,-403.0,-141.0
-29.0,48.0,337.0,-9.0,-775.0,822.0,-985.0,-130.0
-73.0,95.0,398.0,-52.0,-770.0,853.0,-1397.0,-129.0
10.0,126.0,-328.0,-107.0,-818.0,929.0,-1383.0,-212.0
61.0,164.0,-1388.0,-104.0,-850.0,803.0,-817.0,-50.0
175.0,182.0,-1303.0,-95.0,-781.0,441.0,-331.0,73.0
220.0,198.0,-1003.0,-112.0,-751.0,126.0,140.0,95.0
74.0,193.0,-476.0,-137.0,-718.0,-297.0,236.0,269.0
-118.0,128.0,-80.0,-136.0,-646.0,-832.0,345.0,401.0
-132.0,200.0,2.0,-101.0,-506.0,-867.0,538.0,355.0
-136.0,196.0,328.0,-93.0,-242.0,-535.0,678.0,174.0
-215.0,82.0,1240.0,-44.0,20.0,-297.0,155.0,7.0
-203.0,117.0,923.0,27.0,310.0,-472.0,-224.0,-97.0
-193.0,134.0,-470.0,27.0,401.0,-1115.0,-363.0,-220.0
-212.0,56.0,-898.0,29.0,361.0,-1441.0,-664.0,-339.0
-90.0,-72.0,-687.0,2.0,273.0,-1381.0,-854.0,-313.0
199.0,-220.0,-36.0,-19.0,90.0,-1248.0,-1030.0,-44.0
334.0,-305.0,793.0,54.0,-11.0,-917.0,-1141.0,-150.0
23.0,-310.0,1361.0,35.0,53.0,-620.0,-1572.0,-424.0
-138.0,-194.0,1443.0,25.0,109.0,-416.0,-1368.0,-366.0
-92.0,-75.0,2398.0,40.0,80.0,-275.0,-743.0,-139.0
-134.0,30.0,4000.0,-77.0,245.0,-232.0,151.0,92.0
-248.0,57.0,4000.0,-104.0,247.0,-238.0,602.0,-163.0
-368.0,-51.0,-125.0,-64.0,180.0,-373.0,949.0,-168.0
-337.0,-93.0,-4000.0,-92.0,166.0,-373.0,1149.0,-124.0
-254.0,-135.0,-4000.0,-87.0,95.0,-500.0,765.0,-232.0
-110.0,-85.0,-4000.0,-50.0,111.0,-810.0,876.0,-8.0
-13.0,-21.0,-3604.0,-21.0,40.0,-991.0,486.0,-95.0
-50.0,33.0,-2186.0,-65.0,49.0,-1075.0,356.0,-29.0
-75.0,65.0,-716.0,-47.0,29.0,-1161.0,262.0,19.0
-51.0,99.0,400.0,191.0,1.0,-1302.0,34.0,25.0
-131.0,108.0,611.0,199.0,-75.0,-1248.0,-29.0,77.0
-44.0,75.0,589.0,-35.0,-152.0,-1248.0,-257.0,-62.0
8.0,58.0,68.0,-41.0,-141.0,-1330.0,-240.0,193.0
93.0,4.0,57.0,44.0,-158.0,-1316.0,-326.0,271.0
157.0,-102.0,229.0,5.0,65.0,-1432.0,-203.0,149.0
117.0,-207.0,611.0,-19.0,444.0,-1437.0,-180.0,111.0
204.0,-127.0,722.0,4.0,1026.0,-997.0,-214.0,7.0
81.0,-129.0,695.0,-94.0,1539.0,-474.0,-119.0,47.0
86.0,-141.0,773.0,-127.0,1992.0,20.0,64.0,134.0
86.0,-72.0,759.0,-88.0,2378.0,458.0,246.0,212.0
69.0,-45.0,728.0,-99.0,2618.0,220.0,237.0,212.0
235.0,-15.0,582.0,-81.0,2825.0,-189.0,210.0,148.0
452.0,-36.0,507.0,-66.0,2889.0,-123.0,242.0,138.0
315.0,6.0,621.0,-84.0,2955.0,-251.0,283.0,72.0
44.0,89.0,671.0,-33.0,2889.0,-199.0,276.0,72.0
88.0,113.0,642.0,28.0,2955.0,83.0,460.0,76.0
119.0,179.0,598.0,22.0,2907.0,2.0,818.0,119.0
209.0,298.0,476.0,-3.0,2760.0,-16.0,658.0,279.0
122.0,244.0,461.0,6.0,2825.0,31.0,254.0,204.0
81.0,189.0,415.0,22.0,2842.0,138.0,210.0,67.0
21.0,205.0,376.0,34.0,2772.0,281.0,61.0,93.0
-67.0,140.0,398.0,73.0,2711.0,380.0,49.0,304.0
-4.0,63.0,410.0,91.0,2842.0,380.0,50.0,344.0
-72.0,-66.0,321.0,109.0,2748.0,490.0,116.0,127.0
-125.0,-146.0,137.0,122.0,2581.0,944.0,248.0,47.0
-152.0,-167.0,17.0,110.0,2378.0,1340.0,-1.0,-157.0
-107.0,-134.0,-5.0,80.0,2189.0,1279.0,-40.0,-183.0
-127.0,-96.0,20.0,64.0,2100.0,961.0,-104.0,-356.0
-25.0,-132.0,-32.0,3.0,1970.0,831.0,-485.0,-543.0
134.0,-58.0,-59.0,5.0,1800.0,817.0,-394.0,-183.0
172.0,-20.0,-114.0,-8.0,1445.0,1026.0,-516.0,38.0
202.0,38.0,-194.0,-63.0,1077.0,1287.0,-1266.0,151.0
195.0,85.0,-258.0,-82.0,856.0,1352.0,-678.0,230.0
147.0,28.0,-320.0,-46.0,794.0,1378.0,1418.0,259.0
9.0,-18.0,-343.0,56.0,607.0,1247.0,2244.0,369.0
-43.0,3.0,-352.0,77.0,177.0,1010.0,1223.0,177.0
24.0,88.0,-350.0,120.0,-470.0,896.0,693.0,-3.0
44.0,129.0,-317.0,156.0,-1174.0,1003.0,492.0,7.0
80.0,102.0,-288.0,113.0,-1820.0,1018.0,183.0,-91.0
209.0,84.0,-247.0,95.0,-2460.0,823.0,120.0,-5.0
-35.0,102.0,-172.0,81.0,-3066.0,669.0,5.0,-49.0
-309.0,52.0,-113.0,81.0,-3510.0,137.0,-125.0,-186.0
-319.0,8.0,-61.0,84.0,-3661.0,-463.0,-179.0,-96.0
-343.0,11.0,-5.0,81.0,-3682.0,-607.0,25.0,131.0
-236.0,-10.0,17.0,85.0,-3689.0,-1005.0,61.0,304.0
-172.0,-21.0,17.0,60.0,-3688.0,-1115.0,-137.0,-13.0
18.0,-10.0,-7.0,64.0,-3726.0,-859.0,-221.0,-89.0
471.0,3.0,-16.0,35.0,-3701.0,-867.0,-255.0,-54.0
660.0,22.0,-26.0,-10.0,-3628.0,-750.0,-285.0,-92.0
241.0,57.0,47.0,22.0,-3474.0,-316.0,-285.0,29.0
-44.0,48.0,133.0,34.0,-3315.0,168.0,-331.0,32.0
-296.0,47.0,46.0,-10.0,-3148.0,469.0,-317.0,62.0
-506.0,-56.0,-54.0,-143.0,-2924.0,498.0,-310.0,-116.0
-413.0,-228.0,-118.0,-180.0,-2741.0,401.0,-342.0,-101.0
-388.0,-244.0,-144.0,-124.0,-2531.0,343.0,-418.0,-79.0
-203.0,-143.0,-153.0,161.0,-2274.0,248.0,-455.0,-32.0
-175.0,-90.0,-173.0,402.0,-2043.0,197.0,-384.0,255.0
-158.0,-53.0,-172.0,30.0,-1782.0,31.0,-320.0,726.0
-27.0,-20.0,-158.0,-276.0,-1573.0,-30.0,-194.0,1065.0
228.0,-1.0,-87.0,-401.0,-1318.0,-37.0,-46.0,1012.0
334.0,30.0,-80.0,-523.0,-1109.0,-107.0,-49.0,935.0
90.0,34.0,-93.0,-433.0,-877.0,-86.0,-10.0,474.0
4.0,46.0,-47.0,-336.0,-681.0,-109.0,2.0,-320.0
-131.0,60.0,-24.0,-226.0,-501.0,-49.0,-88.0,-953.0
-201.0,63.0,-22.0,-128.0,-327.0,-29.0,-43.0,-1449.0
-132.0,34.0,-64.0,68.0,-225.0,-64.0,40.0,-1432.0
-86.0,54.0,-49.0,193.0,-70.0,-61.0,90.0,-948.0
47.0,52.0,-27.0,125.0,18.0,-29.0,69.0,-736.0
208.0,40.0,-28.0,109.0,119.0,14.0,50.0,-415.0
398.0,23.0,-5.0,113.0,198.0,83.0,95.0,171.0
494.0,-10.0,15.0,87.0,270.0,95.0,120.0,255.0
622.0,-16.0,61.0,47.0,393.0,83.0,131.0,126.0
310.0,-80.0,104.0,68.0,505.0,137.0,166.0,159.0
-35.0,-75.0,146.0,37.0,602.0,119.0,172.0,474.0
-77.0,-16.0,150.0,-37.0,635.0,1.0,137.0,914.0
-242.0,-8.0,166.0,-53.0,701.0,-85.0,123.0,1272.0
-286.0,-18.0,190.0,-68.0,701.0,-92.0,89.0,1573.0
-527.0,23.0,187.0,-51.0,701.0,-159.0,76.0,1541.0
-610.0,32.0,150.0,6.0,719.0,-308.0,65.0,991.0
-575.0,-44.0,43.0,23.0,713.0,-348.0,33.0,-189.0
-343.0,-93.0,67.0,8.0,706.0,-188.0,38.0,-953.0
-69.0,-39.0,84.0,-21.0,683.0,-260.0,6.0,-1772.0
-82.0,51.0,30.0,-49.0,660.0,-398.0,-1.0,-1891.0
38.0,254.0,48.0,-51.0,550.0,-142.0,2.0,-75.0
86.0,215.0,22.0,-32.0,462.0,225.0,-44.0,1042.0
76.0,-293.0,11.0,-20.0,414.0,303.0,-8.0,1818.0
-100.0,-425.0,-30.0,-80.0,379.0,207.0,28.0,3535.0
-212.0,-264.0,-82.0,-32.0,375.0,202.0,50.0,4000.0
-31.0,-2.0,-102.0,0.0,364.0,132.0,74.0,2313.0
34.0,240.0,-111.0,-8.0,361.0,93.0,39.0,-940.0
22.0,189.0,-99.0,51.0,393.0,101.0,91.0,-2863.0
53.0,173.0,-137.0,61.0,432.0,71.0,87.0,-3773.0
120.0,197.0,-165.0,38.0,438.0,-19.0,87.0,-4000.0
212.0,371.0,-137.0,-20.0,426.0,-70.0,283.0,-4000.0
256.0,412.0,-132.0,-69.0,432.0,-26.0,341.0,-1959.0
238.0,412.0,-96.0,-69.0,420.0,-67.0,213.0,-659.0
162.0,406.0,-86.0,-78.0,425.0,-85.0,158.0,-128.0
111.0,48.0,-116.0,-130.0,397.0,-62.0,17.0,870.0
121.0,-236.0,-63.0,-112.0,379.0,-63.0,-152.0,373.0
60.0,-293.0,-48.0,-78.0,320.0,21.0,-247.0,816.0
28.0,-244.0,-31.0,-33.0,296.0,209.0,-129.0,731.0
5.0,-171.0,-36.0,99.0,310.0,203.0,54.0,890.0
-33.0,-143.0,-59.0,210.0,310.0,129.0,1.0,831.0
-27.0,-128.0,-29.0,232.0,328.0,197.0,155.0,831.0
-13.0,-109.0,-45.0,131.0,270.0,123.0,197.0,882.0
-6.0,-85.0,-70.0,77.0,224.0,-84.0,274.0,719.0
-8.0,-65.0,-17.0,75.0,180.0,-222.0,376.0,947.0
8.0,-43.0,-15.0,7.0,151.0,-327.0,234.0,914.0
17.0,-23.0,8.0,-19.0,104.0,-456.0,162.0,1207.0
11.0,-18.0,18.0,-9.0,47.0,-665.0,110.0,947.0
1.0,-26.0,-3.0,-72.0,24.0,-789.0,119.0,1130.0
-9.0,-17.0,18.0,-72.0,60.0,-607.0,-9.0,1639.0
-28.0,5.0,15.0,-34.0,77.0,-510.0,-48.0,1663.0
-23.0,0.0,21.0,-20.0,49.0,-489.0,-62.0,750.0
-23.0,13.0,24.0,101.0,89.0,-59.0,-101.0,-804.0
-19.0,2.0,18.0,455.0,119.0,163.0,-106.0,-1208.0
-12.0,-6.0,36.0,435.0,102.0,47.0,-88.0,-692.0
-22.0,8.0,30.0,-90.0,88.0,180.0,-55.0,-1396.0
-52.0,8.0,-1.0,-377.0,76.0,114.0,-113.0,-1841.0
-42.0,27.0,24.0,-544.0,66.0,28.0,15.0,-1175.0
-42.0,20.0,20.0,-498.0,58.0,70.0,28.0,-1453.0
-49.0,20.0,7.0,-328.0,47.0,79.0,-78.0,-1143.0
-39.0,34.0,19.0,-261.0,105.0,94.0,-110.0,-1826.0
-49.0,30.0,16.0,-61.0,180.0,23.0,-138.0,-2295.0
-45.0,10.0,30.0,105.0,179.0,-2.0,-183.0,-118.0
-23.0,-40.0,23.0,142.0,148.0,8.0,-143.0,361.0
-10.0,-52.0,23.0,42.0,125.0,-84.0,-27.0,399.0
-46.0,-130.0,11.0,-70.0,55.0,-149.0,4.0,645.0
-50.0,-135.0,-3.0,-167.0,43.0,95.0,56.0,434.0
-21.0,-72.0,1.0,-165.0,30.0,339.0,152.0,654.0
-31.0,-101.0,12.0,-134.0,86.0,347.0,274.0,544.0
-25.0,-79.0,18.0,-105.0,183.0,237.0,349.0,654.0
-20.0,-92.0,6.0,-57.0,133.0,303.0,551.0,556.0
-27.0,-107.0,-3.0,-32.0,55.0,480.0,420.0,491.0
-24.0,-90.0,12.0,38.0,50.0,475.0,43.0,459.0
-33.0,-85.0,2.0,126.0,39.0,506.0,-35.0,359.0
-18.0,-105.0,0.0,115.0,-49.0,333.0,-112.0,361.0
-25.0,-71.0,6.0,50.0,-95.0,-227.0,-152.0,261.0
-15.0,-26.0,-5.0,64.0,-208.0,-867.0,-221.0,249.0
-2.0,-53.0,14.0,51.0,-252.0,-1070.0,-141.0,174.0
-2.0,-24.0,12.0,34.0,-263.0,-966.0,-131.0,153.0
26.0,11.0,23.0,41.0,-425.0,-541.0,-145.0,79.0
-18.0,52.0,5.0,50.0,-457.0,146.0,-101.0,-23.0
-23.0,66.0,10.0,25.0,-380.0,51.0,-172.0,23.0
0.0,69.0,8.0,7.0,-404.0,26.0,-133.0,409.0
22.0,74.0,6.0,24.0,-388.0,351.0,-169.0,1895.0
27.0,65.0,17.0,34.0,-348.0,576.0,-182.0,3849.0
4.0,99.0,1.0,28.0,-65.0,784.0,-209.0,4000.0
13.0,92.0,-6.0,13.0,248.0,480.0,-157.0,4000.0
17.0,84.0,-13.0,44.0,-83.0,394.0,-116.0,4000.0
32.0,67.0,15.0,44.0,-402.0,299.0,-133.0,1281.0
32.0,82.0,26.0,60.0,-508.0,259.0,-95.0,-2412.0
39.0,98.0,39.0,59.0,-769.0,283.0,-104.0,-4000.0
43.0,58.0,23.0,7.0,-846.0,319.0,-27.0,-4000.0
33.0,25.0,15.0,15.0,-593.0,433.0,46.0,-4000.0
15.0,41.0,27.0,-44.0,26.0,480.0,191.0,-4000.0
17.0,44.0,39.0,-65.0,440.0,354.0,238.0,-4000.0
4.0,17.0,49.0,-90.0,618.0,-151.0,238.0,-1013.0
-23.0,53.0,12.0,-141.0,538.0,-238.0,191.0,-543.0
-19.0,115.0,37.0,-36.0,361.0,152.0,64.0,111.0
-33.0,89.0,65.0,88.0,261.0,232.0,4.0,-517.0
-17.0,30.0,71.0,181.0,112.0,-49.0,-75.0,-557.0
-27.0,36.0,60.0,209.0,158.0,-161.0,-94.0,848.0
-34.0,59.0,39.0,238.0,92.0,-517.0,-162.0,2369.0
-32.0,46.0,31.0,290.0,162.0,-780.0,-204.0,2442.0
-58.0,46.0,17.0,245.0,326.0,-337.0,-241.0,1989.0
-51.0,50.0,-40.0,55.0,338.0,-228.0,-253.0,2107.0
-50.0,76.0,-66.0,-96.0,366.0,-320.0,-268.0,1714.0
-33.0,99.0,-89.0,-79.0,301.0,28.0,-346.0,2051.0
-37.0,70.0,-92.0,-82.0,273.0,98.0,-287.0,1598.0
-33.0,44.0,-149.0,-200.0,166.0,49.0,-281.0,1598.0
-39.0,-4.0,-180.0,-256.0,-6.0,126.0,-273.0,1633.0
-30.0,-6.0,-81.0,-271.0,-228.0,319.0,-224.0,1403.0
-7.0,-3.0,-44.0,-322.0,-539.0,667.0,-277.0,44.0
-4.0,-22.0,-87.0,-326.0,-679.0,921.0,-221.0,-1196.0
17.0,8.0,-141.0,-247.0,-478.0,1018.0,-46.0,-809.0
-8.0,-5.0,-147.0,-165.0,38.0,778.0,77.0,-948.0
-12.0,-67.0,-94.0,-75.0,672.0,441.0,43.0,-2393.0
-2.0,-69.0,-38.0,56.0,1018.0,41.0,116.0,-2071.0
-6.0,-73.0,2.0,105.0,1083.0,-379.0,335.0,153.0
4.0,-79.0,64.0,63.0,1083.0,-650.0,441.0,-803.0
-7.0,-60.0,93.0,51.0,1006.0,-1330.0,413.0,-685.0
-6.0,-20.0,77.0,50.0,961.0,-1647.0,372.0,409.0
-8.0,40.0,89.0,26.0,823.0,-907.0,407.0,961.0
0.0,17.0,106.0,4.0,888.0,-120.0,470.0,1859.0
4.0,-10.0,70.0,-36.0,994.0,144.0,445.0,1057.0
0.0,-3.0,53.0,-39.0,1032.0,126.0,375.0,1793.0
-7.0,-2.0,68.0,-22.0,1124.0,57.0,319.0,3291.0
2.0,-46.0,95.0,-6.0,1148.0,31.0,234.0,3849.0
27.0,-7.0,93.0,16.0,1148.0,-9.0,131.0,2310.0
-1.0,38.0,57.0,38.0,1118.0,-234.0,116.0,751.0
-24.0,16.0,43.0,65.0,1333.0,-289.0,271.0,503.0
-16.0,29.0,-6.0,42.0,1694.0,-287.0,339.0,47.0
-10.0,0.0,-18.0,-42.0,2124.0,-262.0,232.0,104.0
-24.0,-16.0,-31.0,158.0,2428.0,4.0,127.0,-61.0
-37.0,-35.0,-16.0,581.0,2491.0,119.0,86.0,-142.0
-6.0,-16.0,10.0,325.0,2189.0,-43.0,149.0,-152.0
12.0,-22.0,-13.0,-111.0,1865.0,-401.0,156.0,452.0
-9.0,-49.0,-38.0,-237.0,1734.0,-385.0,61.0,444.0
-14.0,-22.0,-70.0,-433.0,1443.0,-255.0,32.0,-55.0
-5.0,-26.0,-36.0,-397.0,1059.0,-404.0,-3.0,49.0
-6.0,-4.0,-39.0,-314.0,635.0,-672.0,-59.0,-92.0
10.0,-18.0,-30.0,-250.0,354.0,-1161.0,29.0,-314.0
30.0,-22.0,6.0,-154.0,171.0,-743.0,78.0,-1271.0
27.0,-22.0,-73.0,6.0,-209.0,248.0,94.0,-1735.0
-8.0,-22.0,-54.0,13.0,-547.0,101.0,203.0,-1319.0
-27.0,-22.0,7.0,-74.0,-640.0,1.0,237.0,-1339.0
-8.0,-23.0,-48.0,10.0,-901.0,267.0,145.0,-1697.0
-11.0,-16.0,-65.0,-9.0,-1501.0,191.0,55.0,-2063.0
-19.0,-44.0,-71.0,4.0,-2043.0,235.0,22.0,-2277.0
12.0,-22.0,-99.0,-6.0,-2387.0,178.0,-9.0,-1298.0
-1.0,-37.0,-44.0,37.0,-2935.0,209.0,-52.0,42.0
-3.0,-44.0,8.0,63.0,-3391.0,230.0,-47.0,666.0
-19.0,-14.0,17.0,16.0,-3511.0,309.0,-39.0,188.0
-60.0,-13.0,14.0,-149.0,-3343.0,380.0,-33.0,-919.0
-60.0,-15.0,1.0,-282.0,-3302.0,321.0,14.0,-753.0
-81.0,13.0,12.0,-177.0,-3213.0,351.0,41.0,-398.0
-86.0,75.0,-6.0,-131.0,-2757.0,339.0,89.0,580.0
-88.0,76.0,-13.0,-29.0,-2454.0,445.0,111.0,794.0
-97.0,64.0,-21.0,-47.0,-2029.0,596.0,64.0,83.0
-97.0,86.0,-2.0,-32.0,-1202.0,586.0,78.0,462.0
-92.0,79.0,15.0,8.0,-20.0,586.0,154.0,1020.0
-76.0,55.0,29.0,30.0,497.0,628.0,104.0,1130.0
-36.0,40.0,118.0,303.0,123.0,441.0,14.0,564.0
20.0,52.0,125.0,490.0,-533.0,169.0,-69.0,760.0
42.0,87.0,68.0,316.0,-993.0,-25.0,-24.0,564.0
137.0,121.0,83.0,42.0,-770.0,2.0,10.0,199.0
268.0,240.0,89.0,98.0,-196.0,172.0,-66.0,308.0
328.0,263.0,114.0,130.0,244.0,276.0,70.0,86.0
220.0,170.0,99.0,129.0,94.0,225.0,205.0,141.0
92.0,99.0,-7.0,114.0,-333.0,27.0,335.0,-19.0
7.0,24.0,-67.0,-6.0,-746.0,180.0,339.0,28.0
-43.0,-26.0,-218.0,-365.0,-738.0,315.0,282.0,162.0
-79.0,-83.0,-393.0,-609.0,-73.0,374.0,262.0,43.0
-140.0,-168.0,-308.0,-247.0,644.0,506.0,265.0,-201.0
-138.0,-192.0,-135.0,16.0,1142.0,441.0,229.0,-240.0
-113.0,-155.0,-82.0,101.0,1247.0,532.0,-56.0,-283.0
-18.0,-140.0,-70.0,42.0,1604.0,817.0,-353.0,-401.0
-11.0,-148.0,-97.0,-70.0,2745.0,758.0,-516.0,-366.0
-5.0,-117.0,-97.0,-130.0,3837.0,393.0,-582.0,-370.0
32.0,-84.0,-28.0,-160.0,3725.0,102.0,-645.0,-142.0
6.0,-104.0,46.0,-245.0,3269.0,-169.0,-597.0,-236.0
11.0,-118.0,35.0,-450.0,2882.0,-273.0,-465.0,-313.0
48.0,-70.0,34.0,-393.0,2374.0,-208.0,-251.0,-224.0
96.0,-1.0,28.0,-246.0,2354.0,-75.0,-87.0,30.0
59.0,27.0,-21.0,-222.0,2428.0,96.0,-119.0,384.0
-36.0,-11.0,-22.0,-168.0,2243.0,72.0,-27.0,369.0
-72.0,-31.0,48.0,-125.0,2160.0,-66.0,87.0,230.0
-111.0,-39.0,140.0,-44.0,2190.0,-29.0,133.0,194.0
-143.0,-21.0,177.0,37.0,1639.0,73.0,181.0,138.0
-123.0,15.0,172.0,-3.0,1213.0,-12.0,248.0,8.0
-138.0,-32.0,77.0,-45.0,1669.0,-150.0,286.0,23.0
-125.0,-12.0,-112.0,-110.0,1799.0,-332.0,258.0,15.0
-69.0,17.0,-190.0,-76.0,1118.0,-474.0,244.0,-119.0
-104.0,-1.0,-65.0,34.0,496.0,-541.0,207.0,-186.0
-80.0,-8.0,91.0,155.0,7.0,-541.0,178.0,-43.0
-26.0,11.0,81.0,158.0,-32.0,-284.0,123.0,44.0
108.0,84.0,27.0,116.0,237.0,-101.0,81.0,-1.0
316.0,124.0,4.0,191.0,168.0,-27.0,49.0,-143.0
340.0,129.0,0.0,243.0,-248.0,225.0,45.0,-227.0
245.0,46.0,16.0,272.0,-281.0,315.0,62.0,-301.0
58.0,-102.0,-12.0,238.0,-92.0,172.0,90.0,-228.0
-37.0,-111.0,-28.0,229.0,-217.0,268.0,130.0,-19.0
-31.0,19.0,-73.0,150.0,-195.0,441.0,83.0,-111.0
-101.0,68.0,-75.0,-263.0,-439.0,380.0,94.0,-260.0
-128.0,-5.0,-66.0,-550.0,-604.0,426.0,78.0,-276.0
-2.0,-63.0,-143.0,-418.0,-744.0,528.0,12.0,-228.0
25.0,-71.0,-182.0,-336.0,-1164.0,431.0,-34.0,-196.0
25.0,-29.0,-93.0,-23.0,-1552.0,276.0,-123.0,-21.0
-16.0,23.0,46.0,272.0,-2122.0,22.0,-127.0,-47.0
-45.0,60.0,95.0,516.0,-2484.0,-344.0,50.0,-177.0
35.0,13.0,112.0,733.0,-2509.0,-656.0,124.0,-136.0
-35.0,-29.0,118.0,695.0,-2406.0,-855.0,20.0,-151.0
-119.0,-32.0,118.0,558.0,-2660.0,-1005.0,-66.0,-262.0
-215.0,-66.0,104.0,90.0,-3237.0,-1107.0,-245.0,-297.0
-445.0,-77.0,85.0,-237.0,-3604.0,-1172.0,-273.0,-152.0
-431.0,-111.0,44.0,-318.0,-3655.0,-1140.0,-169.0,-183.0
-6.0,-99.0,57.0,-143.0,-3312.0,-1070.0,-74.0,-223.0
192.0,-31.0,85.0,25.0,-3083.0,-875.0,-200.0,-254.0
122.0,42.0,64.0,74.0,-3119.0,-578.0,-607.0,-168.0
4.0,50.0,72.0,120.0,-3018.0,-332.0,-676.0,-65.0
-90.0,84.0,110.0,145.0,-2550.0,-255.0,-261.0,5.0
-237.0,122.0,142.0,160.0,-2174.0,-213.0,194.0,84.0
-228.0,129.0,85.0,88.0,-1915.0,148.0,99.0,85.0
82.0,186.0,2.0,61.0,-1446.0,462.0,-272.0,124.0
212.0,174.0,8.0,-227.0,-1768.0,445.0,-472.0,83.0
303.0,174.0,36.0,-595.0,-1898.0,282.0,-228.0,100.0
235.0,197.0,24.0,-849.0,-1729.0,231.0,539.0,153.0
86.0,173.0,-21.0,-604.0,-2095.0,333.0,707.0,304.0
-16.0,182.0,-42.0,-51.0,-2094.0,309.0,661.0,369.0
-220.0,200.0,-73.0,238.0,-2160.0,227.0,717.0,397.0
-233.0,179.0,-82.0,590.0,-2318.0,283.0,478.0,459.0
-220.0,160.0,2.0,695.0,-2472.0,441.0,234.0,513.0
-197.0,152.0,83.0,655.0,-2857.0,480.0,15.0,515.0
-142.0,91.0,66.0,565.0,-2660.0,445.0,-139.0,434.0
-136.0,22.0,10.0,233.0,-2247.0,506.0,-226.0,434.0
-101.0,-12.0,-14.0,59.0,-2116.0,557.0,219.0,348.0
-60.0,0.0,-241.0,-175.0,-1802.0,641.0,681.0,292.0
-52.0,-4.0,-464.0,-477.0,-1108.0,673.0,481.0,247.0
-9.0,-79.0,-393.0,-560.0,-323.0,693.0,-83.0,269.0
62.0,-190.0,-469.0,-571.0,168.0,781.0,-371.0,264.0
188.0,-215.0,-505.0,-497.0,236.0,758.0,282.0,213.0
253.0,-212.0,-209.0,-273.0,215.0,781.0,1019.0,329.0
187.0,-264.0,18.0,-159.0,505.0,831.0,734.0,465.0
227.0,-216.0,19.0,-206.0,1003.0,801.0,-664.0,609.0
130.0,-145.0,41.0,-326.0,1855.0,758.0,-1748.0,615.0
98.0,-89.0,119.0,-271.0,2955.0,734.0,-1497.0,550.0
177.0,-81.0,107.0,-91.0,4000.0,706.0,-723.0,426.0
122.0,-72.0,89.0,-54.0,4000.0,701.0,-394.0,274.0
69.0,-59.0,36.0,-39.0,4000.0,725.0,-781.0,182.0
23.0,-72.0,9.0,91.0,4000.0,619.0,-1702.0,23.0
35.0,-23.0,93.0,211.0,4000.0,492.0,-1673.0,-126.0
-23.0,-19.0,191.0,402.0,4000.0,462.0,278.0,-246.0
1.0,-11.0,195.0,558.0,4000.0,354.0,1639.0,-290.0
-47.0,15.0,178.0,419.0,4000.0,325.0,1406.0,-292.0
-195.0,16.0,234.0,337.0,4000.0,148.0,1158.0,-297.0
-177.0,98.0,230.0,245.0,4000.0,-123.0,1158.0,-254.0
-55.0,111.0,187.0,106.0,4000.0,-157.0,693.0,-357.0
69.0,79.0,85.0,22.0,4000.0,-192.0,791.0,-471.0
62.0,83.0,4.0,-2.0,4000.0,-240.0,819.0,-518.0
11.0,90.0,-30.0,-1.0,4000.0,-354.0,203.0,-577.0
-59.0,111.0,-202.0,-196.0,4000.0,-565.0,46.0,-696.0
-61.0,102.0,-238.0,-194.0,4000.0,-611.0,-538.0,-750.0
-79.0,95.0,-154.0,-112.0,4000.0,-489.0,-1058.0,-724.0
-102.0,84.0,-144.0,-102.0,4000.0,-340.0,-1030.0,-671.0
-109.0,124.0,-94.0,-55.0,3668.0,-202.0,-548.0,-409.0
-142.0,205.0,-9.0,-82.0,3167.0,-6.0,-209.0,-305.0
-16.0,179.0,83.0,-36.0,2124.0,155.0,-294.0,-380.0
-42.0,120.0,111.0,-53.0,1287.0,220.0,-273.0,-407.0
-132.0,56.0,72.0,-86.0,151.0,400.0,-417.0,-490.0
-119.0,4.0,85.0,-94.0,-1324.0,473.0,-64.0,-557.0
-37.0,-48.0,183.0,-77.0,-3185.0,563.0,433.0,-553.0
90.0,-199.0,140.0,-185.0,-4000.0,489.0,1010.0,-480.0
121.0,-318.0,60.0,-224.0,-4000.0,374.0,1787.0,-467.0
77.0,-351.0,33.0,-118.0,-4000.0,217.0,1770.0,-467.0
-37.0,-305.0,-12.0,-95.0,-4000.0,41.0,1125.0,-245.0
39.0,-166.0,-44.0,-22.0,-4000.0,4.0,791.0,-117.0
127.0,-111.0,-111.0,-11.0,-4000.0,-137.0,472.0,15.0
77.0,-127.0,-94.0,10.0,-4000.0,-337.0,134.0,69.0
39.0,-111.0,-44.0,25.0,-4000.0,-555.0,99.0,82.0
25.0,-46.0,-50.0,-20.0,-4000.0,-582.0,-29.0,-1.0
53.0,2.0,-93.0,-57.0,-4000.0,-546.0,-6.0,-33.0
-3.0,-23.0,-56.0,-3.0,-4000.0,-515.0,325.0,230.0
39.0,29.0,-52.0,99.0,-4000.0,-485.0,523.0,410.0
92.0,47.0,-72.0,154.0,-4000.0,-511.0,220.0,563.0
82.0,52.0,40.0,220.0,-4000.0,-507.0,467.0,686.0
66.0,85.0,138.0,227.0,-4000.0,-515.0,528.0,870.0
39.0,99.0,137.0,171.0,-4000.0,-532.0,-408.0,670.0
22.0,124.0,101.0,172.0,-4000.0,-575.0,-919.0,487.0
-41.0,115.0,54.0,81.0,-4000.0,-722.0,-1048.0,536.0
-36.0,94.0,51.0,-90.0,-2270.0,-940.0,-678.0,615.0
-46.0,67.0,50.0,-217.0,-425.0,-1032.0,-76.0,695.0
-45.0,70.0,-80.0,-263.0,1443.0,-985.0,-72.0,678.0
-11.0,86.0,-70.0,-206.0,3215.0,-940.0,-78.0,796.0
7.0,44.0,47.0,-193.0,4000.0,-881.0,441.0,784.0
8.0,64.0,71.0,-116.0,4000.0,-750.0,889.0,751.0
23.0,94.0,59.0,-90.0,4000.0,-761.0,627.0,589.0
70.0,34.0,105.0,-36.0,4000.0,-825.0,311.0,434.0
65.0,-2.0,154.0,-106.0,4000.0,-773.0,150.0,312.0
61.0,22.0,-25.0,-193.0,4000.0,-672.0,-112.0,252.0
35.0,-2.0,-112.0,23.0,4000.0,-556.0,-60.0,304.0
-66.0,-53.0,-47.0,207.0,4000.0,-435.0,19.0,239.0
-120.0,-22.0,28.0,305.0,4000.0,-306.0,-435.0,254.0
-123.0,-10.0,-67.0,236.0,4000.0,-250.0,-1258.0,242.0
-155.0,-36.0,-232.0,217.0,4000.0,-251.0,-1702.0,213.0
-107.0,-91.0,-91.0,524.0,4000.0,-219.0,-1397.0,134.0
-78.0,-199.0,-41.0,558.0,4000.0,-107.0,-973.0,116.0
-113.0,-228.0,-216.0,-104.0,4000.0,98.0,-802.0,117.0
-52.0,-218.0,-171.0,-511.0,4000.0,329.0,-857.0,137.0
18.0,-171.0,-215.0,-574.0,4000.0,563.0,-745.0,47.0
39.0,-83.0,-357.0,-630.0,4000.0,771.0,218.0,-183.0
74.0,-48.0,-285.0,-430.0,3903.0,888.0,604.0,-205.0
89.0,-5.0,-222.0,-357.0,3725.0,1059.0,303.0,-203.0
13.0,12.0,-162.0,-194.0,3541.0,1187.0,55.0,-258.0
-50.0,0.0,-52.0,69.0,3346.0,1266.0,-585.0,-281.0
-72.0,28.0,-12.0,106.0,3150.0,1313.0,-188.0,-280.0
16.0,64.0,-54.0,0.0,2889.0,1214.0,67.0,-286.0
47.0,101.0,-42.0,75.0,2630.0,1083.0,-5.0,-262.0
68.0,87.0,77.0,109.0,2419.0,882.0,563.0,-236.0
96.0,86.0,190.0,55.0,2124.0,628.0,1574.0,-259.0
100.0,85.0,215.0,99.0,1824.0,368.0,2179.0,-177.0
98.0,80.0,263.0,72.0,1539.0,166.0,1344.0,-150.0
-124.0,57.0,284.0,115.0,1325.0,195.0,494.0,-195.0
100.0,50.0,247.0,157.0,1207.0,248.0,158.0,-175.0
553.0,54.0,212.0,207.0,1279.0,118.0,-118.0,-105.0
481.0,51.0,195.0,161.0,1417.0,-36.0,-1445.0,31.0
81.0,73.0,201.0,154.0,1352.0,-101.0,-3053.0,133.0
-69.0,84.0,215.0,155.0,1083.0,-149.0,-2976.0,116.0
-3.0,85.0,246.0,115.0,1059.0,-253.0,-1103.0,-16.0
-209.0,89.0,217.0,134.0,1474.0,-428.0,297.0,-141.0
-582.0,74.0,203.0,48.0,1800.0,-532.0,858.0,-200.0
-1016.0,40.0,195.0,6.0,2189.0,-474.0,1548.0,-333.0
-873.0,52.0,70.0,23.0,2428.0,-556.0,858.0,-467.0
-209.0,122.0,-104.0,25.0,2165.0,-722.0,793.0,-562.0
49.0,170.0,-177.0,3.0,1855.0,-702.0,1158.0,-545.0
228.0,200.0,-113.0,81.0,1800.0,-696.0,876.0,-481.0
175.0,183.0,48.0,231.0,1853.0,-917.0,103.0,-627.0
-183.0,89.0,138.0,258.0,1734.0,-940.0,-867.0,-803.0
-135.0,78.0,105.0,242.0,1769.0,-875.0,-1136.0,-1018.0
-44.0,38.0,125.0,272.0,1898.0,-1056.0,-1063.0,-1339.0
-2.0,-57.0,83.0,187.0,1547.0,-1227.0,-394.0,-1644.0
60.0,-50.0,-25.0,-104.0,880.0,-1396.0,29.0,-1986.0
103.0,-78.0,-128.0,-411.0,627.0,-1688.0,309.0,-2215.0
181.0,-80.0,-248.0,-328.0,358.0,-1850.0,219.0,-2412.0
174.0,-3.0,-328.0,-133.0,73.0,-1850.0,818.0,-2543.0
-24.0,20.0,-385.0,-223.0,459.0,-1896.0,2061.0,-2283.0
-234.0,74.0,-505.0,-387.0,758.0,-1909.0,2514.0,-1856.0
-538.0,36.0,-627.0,-580.0,96.0,-1737.0,1125.0,-1495.0
-260.0,-96.0,-563.0,-458.0,-903.0,-1452.0,-802.0,-1005.0
595.0,-98.0,-414.0,-202.0,-653.0,-917.0,352.0,-327.0
733.0,-105.0,-340.0,-94.0,-189.0,-403.0,1406.0,151.0
691.0,-137.0,-245.0,8.0,-708.0,-436.0,652.0,629.0
321.0,-153.0,-55.0,74.0,-1653.0,-468.0,-49.0,1325.0
-188.0,-176.0,72.0,149.0,-3054.0,-219.0,-1291.0,1924.0
-109.0,-167.0,-98.0,120.0,-4000.0,-22.0,-2064.0,2624.0
61.0,-166.0,-688.0,18.0,-4000.0,217.0,-1914.0,3145.0
334.0,-188.0,-1294.0,84.0,-4000.0,348.0,-1648.0,3469.0
68.0,-154.0,-1127.0,209.0,-4000.0,390.0,-1374.0,3654.0
-896.0,-36.0,-615.0,191.0,-4000.0,469.0,-1054.0,3469.0
-1211.0,-46.0,-311.0,115.0,-4000.0,506.0,-212.0,3096.0
-428.0,-104.0,-1134.0,88.0,-4000.0,616.0,376.0,2674.0
269.0,-63.0,-1882.0,16.0,-4000.0,725.0,480.0,2172.0
660.0,-2.0,-99.0,7.0,-4000.0,944.0,693.0,1704.0
652.0,80.0,1544.0,99.0,-4000.0,1405.0,498.0,1319.0
408.0,111.0,1989.0,155.0,-4000.0,1982.0,432.0,1077.0
287.0,106.0,2989.0,69.0,-4000.0,2580.0,311.0,804.0
-33.0,98.0,3236.0,-68.0,-4000.0,3018.0,172.0,456.0
-128.0,82.0,2730.0,5.0,-4000.0,3361.0,79.0,228.0
-127.0,110.0,2160.0,134.0,-3510.0,3539.0,-4.0,95.0
-174.0,120.0,1431.0,57.0,-2627.0,3655.0,20.0,53.0
-250.0,57.0,923.0,-39.0,-1979.0,3593.0,-4.0,-39.0
-262.0,24.0,71.0,-30.0,-1377.0,2953.0,28.0,-136.0
-121.0,35.0,-890.0,-133.0,-673.0,1994.0,-98.0,-158.0
-225.0,48.0,-906.0,-289.0,-147.0,1098.0,-182.0,-258.0
-506.0,34.0,-711.0,-442.0,561.0,497.0,-260.0,-284.0
-523.0,-15.0,-478.0,-401.0,1287.0,376.0,-193.0,-258.0
-305.0,-28.0,-200.0,-200.0,1539.0,576.0,-224.0,-274.0
208.0,-50.0,-285.0,29.0,1527.0,693.0,-530.0,-229.0
509.0,-7.0,-144.0,227.0,1482.0,693.0,-658.0,-151.0
529.0,40.0,-389.0,207.0,1800.0,689.0,-731.0,-121.0
618.0,-1.0,-480.0,174.0,1853.0,657.0,-731.0,-71.0
487.0,-72.0,-519.0,100.0,1604.0,550.0,-472.0,-72.0
180.0,-77.0,-847.0,101.0,1710.0,469.0,-75.0,-153.0
-493.0,-93.0,-1078.0,118.0,1898.0,307.0,523.0,43.0
-317.0,-100.0,-1215.0,144.0,2124.0,132.0,1255.0,202.0
316.0,-49.0,-954.0,329.0,2386.0,249.0,1919.0,187.0
17.0,-20.0,-580.0,310.0,2711.0,213.0,2579.0,153.0
162.0,-17.0,-498.0,142.0,2943.0,14.0,2647.0,38.0
212.0,-16.0,-1778.0,-55.0,3150.0,-64.0,2086.0,-132.0
-25.0,33.0,-2835.0,-40.0,3297.0,-255.0,1705.0,-197.0
89.0,54.0,-3372.0,60.0,3493.0,-541.0,1398.0,-220.0
-161.0,58.0,-2981.0,-146.0,3476.0,-939.0,1084.0,-265.0
-250.0,67.0,415.0,-263.0,3215.0,-1115.0,803.0,-187.0
-418.0,0.0,3072.0,-137.0,3346.0,-680.0,734.0,-152.0
-428.0,-74.0,4000.0,-159.0,3334.0,-232.0,732.0,-34.0
-691.0,-64.0,3397.0,-328.0,3363.0,-116.0,604.0,46.0
-392.0,-50.0,463.0,-520.0,4000.0,-182.0,343.0,161.0
131.0,-47.0,-698.0,-684.0,4000.0,-474.0,-93.0,236.0
-2051.0,19.0,-2175.0,-614.0,4000.0,-663.0,-480.0,273.0
-606.0,101.0,-1992.0,-258.0,4000.0,-586.0,-876.0,459.0
2809.0,139.0,793.0,-182.0,4000.0,-476.0,-1425.0,499.0
1494.0,144.0,1690.0,-362.0,4000.0,-481.0,-1962.0,491.0
1194.0,131.0,598.0,-488.0,4000.0,-474.0,-2355.0,369.0
368.0,120.0,-24.0,-503.0,2760.0,-441.0,-2577.0,32.0
-664.0,147.0,1021.0,-119.0,1247.0,-449.0,-2817.0,-305.0
107.0,46.0,2094.0,26.0,213.0,-480.0,-2994.0,-415.0
-1616.0,-47.0,1704.0,-66.0,-644.0,-595.0,-2740.0,104.0
-3836.0,-46.0,337.0,134.0,-1520.0,-663.0,-2288.0,1247.0
-43.0,-69.0,-476.0,170.0,-2115.0,-645.0,-1848.0,1859.0
4000.0,-31.0,1257.0,-44.0,-2664.0,-586.0,-1422.0,1568.0
2341.0,-78.0,1680.0,-12.0,-2735.0,-501.0,-998.0,1020.0
1515.0,-130.0,1133.0,146.0,-2484.0,-485.0,-733.0,741.0
111.0,-43.0,1497.0,183.0,-2122.0,-519.0,-261.0,890.0
-1022.0,56.0,476.0,204.0,-1463.0,-533.0,242.0,1122.0
-645.0,-36.0,-128.0,129.0,-746.0,-532.0,319.0,1020.0
-909.0,-87.0,-971.0,87.0,-225.0,-459.0,532.0,564.0
-775.0,-36.0,-2822.0,-95.0,-23.0,-507.0,1004.0,-276.0
-1025.0,-7.0,-4000.0,-318.0,-364.0,-555.0,1223.0,-1823.0
-1045.0,55.0,-2692.0,-125.0,-1117.0,-581.0,723.0,-4000.0
81.0,-44.0,-2021.0,56.0,-1915.0,-489.0,642.0,-4000.0
1569.0,-45.0,-4000.0,193.0,-2029.0,-106.0,1528.0,-4000.0
640.0,90.0,-4000.0,301.0,-1190.0,177.0,1379.0,-4000.0
346.0,152.0,-4000.0,199.0,-197.0,324.0,881.0,-4000.0
2781.0,77.0,-3160.0,-22.0,758.0,479.0,832.0,-2800.0
4000.0,-60.0,4000.0,-301.0,887.0,341.0,661.0,-1632.0
3434.0,-113.0,4000.0,-384.0,477.0,39.0,661.0,-948.0
-108.0,-79.0,4000.0,-364.0,71.0,-110.0,693.0,-252.0
-2075.0,15.0,4000.0,-188.0,-543.0,-158.0,637.0,507.0
-3046.0,95.0,4000.0,61.0,-770.0,-145.0,604.0,1077.0
-3889.0,187.0,4000.0,182.0,-1049.0,-48.0,576.0,1252.0
-3424.0,205.0,4000.0,199.0,-1666.0,-92.0,563.0,751.0
-3164.0,114.0,3177.0,170.0,-2016.0,-90.0,543.0,-16.0
-1456.0,19.0,2030.0,226.0,-1918.0,-65.0,506.0,-194.0
603.0,8.0,437.0,134.0,-2056.0,-81.0,489.0,255.0
-223.0,155.0,-3539.0,-17.0,-2316.0,-102.0,433.0,742.0
-55.0,239.0,-4000.0,6.0,-2421.0,-156.0,380.0,564.0
562.0,225.0,-4000.0,102.0,-2561.0,-145.0,319.0,-91.0
-880.0,208.0,-1415.0,518.0,-2548.0,-124.0,311.0,-1245.0
-1885.0,115.0,2017.0,968.0,-2465.0,-84.0,343.0,-1756.0
-1560.0,57.0,4000.0,900.0,-2387.0,-82.0,297.0,-940.0
1293.0,-34.0,2795.0,565.0,-1963.0,-20.0,286.0,-341.0
1569.0,-106.0,480.0,245.0,-1552.0,25.0,267.0,-386.0
717.0,-175.0,-3355.0,-149.0,-1601.0,38.0,274.0,-423.0
-518.0,-263.0,-4000.0,-654.0,-1649.0,66.0,303.0,131.0
-2419.0,-220.0,-4000.0,-831.0,-1665.0,45.0,288.0,825.0
-1815.0,-148.0,-4000.0,-437.0,-1439.0,35.0,262.0,955.0
-1300.0,-53.0,-4000.0,-103.0,-1182.0,-11.0,181.0,772.0
-64.0,27.0,-4000.0,-37.0,-1292.0,-59.0,103.0,941.0
-141.0,82.0,4000.0,-19.0,-1963.0,-58.0,22.0,1476.0
-953.0,22.0,4000.0,-118.0,-2290.0,-17.0,-3.0,1960.0
-160.0,-6.0,4000.0,-31.0,-1515.0,96.0,22.0,2223.0
1869.0,12.0,4000.0,12.0,-15.0,283.0,18.0,2413.0
2728.0,-11.0,4000.0,-202.0,1352.0,393.0,-24.0,2154.0
2518.0,55.0,4000.0,-389.0,1352.0,219.0,-62.0,1912.0
2157.0,23.0,4000.0,-401.0,857.0,97.0,-8.0,1901.0
1634.0,-39.0,4000.0,-401.0,271.0,43.0,-7.0,1598.0
1356.0,-57.0,4000.0,-418.0,-203.0,21.0,-18.0,1541.0
986.0,-44.0,3714.0,-328.0,44.0,145.0,-17.0,1399.0
1181.0,-10.0,1174.0,-198.0,888.0,147.0,12.0,1241.0
824.0,-67.0,-1279.0,23.0,1198.0,112.0,36.0,1187.0
538.0,-13.0,-3136.0,182.0,340.0,65.0,-6.0,1012.0
334.0,20.0,-4000.0,337.0,-108.0,-1.0,39.0,896.0
277.0,50.0,-4000.0,467.0,-8.0,-78.0,47.0,686.0
263.0,85.0,-4000.0,394.0,-16.0,-147.0,54.0,425.0
269.0,52.0,-4000.0,326.0,-50.0,-125.0,59.0,312.0
408.0,74.0,-4000.0,276.0,468.0,-77.0,21.0,190.0
214.0,-31.0,-4000.0,255.0,1443.0,-7.0,19.0,-240.0
214.0,-78.0,2653.0,128.0,2124.0,105.0,26.0,-382.0
43.0,-91.0,4000.0,16.0,1918.0,52.0,24.0,-370.0
56.0,-57.0,4000.0,50.0,1462.0,-4.0,18.0,-472.0
-61.0,-40.0,4000.0,59.0,1574.0,76.0,20.0,-301.0
44.0,-84.0,4000.0,75.0,1904.0,68.0,13.0,-320.0
-28.0,-83.0,4000.0,-8.0,2630.0,132.0,41.0,-427.0
-383.0,-28.0,3873.0,-37.0,3085.0,241.0,31.0,-448.0
-382.0,38.0,1249.0,126.0,3037.0,154.0,17.0,-470.0
-449.0,35.0,-768.0,69.0,2683.0,-14.0,22.0,-370.0
-425.0,26.0,-1534.0,33.0,1966.0,2.0,5.0,-508.0
-461.0,-7.0,-3176.0,93.0,1193.0,-89.0,-16.0,-608.0
-441.0,-4.0,-4000.0,96.0,415.0,-208.0,-39.0,-380.0
-388.0,-19.0,-4000.0,95.0,218.0,-226.0,-90.0,-246.0
-296.0,12.0,-4000.0,-28.0,542.0,-182.0,-109.0,-221.0
-110.0,10.0,-4000.0,-163.0,692.0,40.0,-109.0,-163.0
12.0,-47.0,-4000.0,-282.0,947.0,101.0,-188.0,-59.0
-39.0,-44.0,-4000.0,-397.0,255.0,86.0,-204.0,-134.0
-162.0,-66.0,-4000.0,-401.0,-795.0,23.0,-204.0,-232.0
-1.0,-125.0,3626.0,-391.0,-783.0,82.0,-189.0,-348.0
49.0,-107.0,4000.0,-387.0,-1292.0,172.0,-142.0,-301.0
-181.0,-32.0,4000.0,-226.0,-1375.0,59.0,-108.0,-232.0
-271.0,25.0,4000.0,-206.0,-1489.0,-23.0,-94.0,-380.0
2.0,70.0,4000.0,-247.0,-1833.0,73.0,-85.0,-449.0
5.0,94.0,4000.0,-212.0,-1504.0,191.0,-49.0,-653.0
-162.0,131.0,4000.0,-133.0,-1142.0,261.0,-43.0,-675.0
-147.0,121.0,1432.0,15.0,-183.0,250.0,-27.0,-572.0
-169.0,86.0,-494.0,106.0,-278.0,164.0,-32.0,-580.0
-114.0,26.0,-1171.0,222.0,-621.0,47.0,-68.0,-555.0
72.0,-28.0,-2216.0,290.0,-343.0,35.0,-91.0,-345.0
855.0,-94.0,-2819.0,288.0,-770.0,32.0,-109.0,-229.0
2322.0,-101.0,-3831.0,392.0,-968.0,-53.0,-108.0,-269.0
3757.0,-122.0,-3795.0,394.0,-974.0,-3.0,-128.0,-401.0
4000.0,-141.0,-3550.0,328.0,-840.0,25.0,-144.0,-496.0
2157.0,-28.0,-2805.0,236.0,-790.0,46.0,-112.0,-435.0
-167.0,8.0,-2786.0,114.0,-1043.0,96.0,-124.0,-246.0
-2043.0,70.0,-2316.0,105.0,-1072.0,113.0,-150.0,-196.0
-3099.0,14.0,-1700.0,68.0,-1007.0,79.0,-155.0,-129.0
-3050.0,-47.0,-1279.0,50.0,-1102.0,54.0,-131.0,-118.0
-3087.0,-42.0,-696.0,-63.0,-1077.0,19.0,-122.0,-170.0
-2748.0,-57.0,-768.0,-222.0,-1012.0,-27.0,-151.0,41.0
-2503.0,3.0,-1171.0,-225.0,-947.0,-81.0,-154.0,267.0
-2322.0,58.0,-1852.0,-220.0,-791.0,-135.0,-159.0,522.0
-2610.0,94.0,-1134.0,-169.0,-709.0,-194.0,-124.0,590.0
-2968.0,75.0,-180.0,-91.0,-614.0,-318.0,-133.0,745.0
-2786.0,182.0,474.0,-82.0,-631.0,-442.0,-129.0,947.0
-1950.0,374.0,1110.0,-103.0,-667.0,-607.0,-62.0,1142.0
-844.0,424.0,1119.0,-75.0,-483.0,-852.0,-89.0,1259.0
-151.0,381.0,1029.0,-56.0,-276.0,-1054.0,-190.0,1130.0
395.0,328.0,814.0,-55.0,-345.0,-597.0,-320.0,739.0
686.0,300.0,695.0,-52.0,-163.0,48.0,-475.0,319.0
1149.0,146.0,450.0,-51.0,361.0,246.0,-542.0,103.0
1345.0,-49.0,311.0,-47.0,35.0,620.0,-390.0,-144.0
1356.0,-156.0,238.0,-40.0,-332.0,953.0,-208.0,17.0
1291.0,-247.0,76.0,-10.0,43.0,1189.0,18.0,59.0
1150.0,-468.0,45.0,30.0,102.0,1292.0,209.0,-123.0
1095.0,-505.0,24.0,87.0,-239.0,1248.0,148.0,-166.0
1051.0,-163.0,165.0,111.0,-1200.0,1207.0,124.0,-245.0
1108.0,-46.0,158.0,99.0,-2389.0,1058.0,151.0,-284.0
1095.0,-114.0,45.0,28.0,-2935.0,888.0,141.0,-175.0
1246.0,-226.0,12.0,-15.0,-2140.0,719.0,101.0,117.0
1246.0,-179.0,-23.0,42.0,-837.0,725.0,89.0,13.0
1084.0,63.0,74.0,77.0,-263.0,724.0,93.0,59.0
929.0,70.0,187.0,105.0,224.0,601.0,40.0,264.0
758.0,182.0,212.0,90.0,713.0,468.0,32.0,255.0
697.0,260.0,212.0,83.0,462.0,172.0,43.0,203.0
627.0,240.0,172.0,142.0,541.0,-75.0,73.0,467.0
543.0,200.0,152.0,199.0,967.0,-252.0,73.0,670.0
705.0,51.0,83.0,298.0,855.0,-331.0,133.0,550.0
725.0,-163.0,42.0,377.0,719.0,-394.0,203.0,564.0
150.0,-383.0,172.0,362.0,426.0,-481.0,177.0,322.0
79.0,-303.0,349.0,301.0,575.0,-501.0,181.0,-96.0
789.0,-273.0,419.0,272.0,699.0,-511.0,165.0,100.0
914.0,-314.0,284.0,246.0,933.0,-447.0,209.0,-30.0
325.0,-307.0,203.0,67.0,940.0,-342.0,242.0,-638.0
-27.0,-334.0,345.0,-237.0,692.0,-336.0,246.0,-605.0
184.0,-288.0,611.0,-584.0,594.0,-320.0,268.0,-1013.0
-580.0,-244.0,827.0,-770.0,466.0,-289.0,246.0,-1595.0
-1752.0,-122.0,728.0,-446.0,766.0,-289.0,254.0,-914.0
-1801.0,66.0,408.0,40.0,725.0,-277.0,284.0,-514.0
-1853.0,485.0,36.0,123.0,748.0,-320.0,300.0,-1234.0
-1817.0,711.0,-255.0,69.0,751.0,-286.0,266.0,-1951.0
-1603.0,485.0,-912.0,-180.0,822.0,-293.0,246.0,-2035.0
-1175.0,404.0,-1557.0,-365.0,1059.0,-334.0,214.0,-1590.0
-934.0,464.0,-930.0,-160.0,1051.0,-333.0,220.0,-539.0
-821.0,464.0,-230.0,-220.0,933.0,-362.0,218.0,870.0
-238.0,376.0,-22.0,-140.0,823.0,-383.0,169.0,1686.0
108.0,235.0,450.0,5.0,837.0,-416.0,213.0,2419.0
308.0,210.0,728.0,105.0,880.0,-419.0,238.0,3000.0
511.0,-140.0,785.0,226.0,766.0,-423.0,249.0,3395.0
699.0,-770.0,807.0,187.0,469.0,-373.0,238.0,3847.0
1065.0,-944.0,748.0,207.0,509.0,-268.0,220.0,4000.0
1869.0,-479.0,533.0,215.0,609.0,-177.0,260.0,4000.0
1962.0,520.0,24.0,181.0,686.0,-82.0,283.0,3523.0
1000.0,1187.0,-507.0,64.0,725.0,-16.0,273.0,3144.0
1226.0,1102.0,-617.0,-28.0,607.0,19.0,225.0,2901.0
2028.0,542.0,-487.0,-66.0,562.0,-6.0,227.0,2435.0
1291.0,300.0,48.0,-86.0,570.0,3.0,291.0,2118.0
71.0,451.0,390.0,-116.0,672.0,16.0,294.0,1338.0
-523.0,1077.0,410.0,-121.0,527.0,-1.0,336.0,368.0
-1170.0,1173.0,546.0,-124.0,505.0,20.0,319.0,-286.0
-1639.0,-33.0,236.0,-285.0,489.0,26.0,208.0,-1461.0
-1175.0,-692.0,-34.0,-388.0,432.0,31.0,199.0,-2127.0
-86.0,-866.0,-92.0,-279.0,440.0,-3.0,138.0,-2472.0
-262.0,-814.0,-144.0,-46.0,429.0,-6.0,88.0,-2872.0
-1288.0,-1160.0,-182.0,149.0,522.0,7.0,119.0,-2941.0
-1417.0,-869.0,-178.0,7.0,473.0,21.0,116.0,-3308.0
-1324.0,-421.0,-216.0,-401.0,408.0,57.0,107.0,-3593.0
-1130.0,-1327.0,-277.0,-544.0,335.0,90.0,67.0,-4000.0
-756.0,-1899.0,-146.0,-437.0,325.0,101.0,48.0,-4000.0
1059.0,-1767.0,-32.0,-356.0,282.0,138.0,47.0,-4000.0
4000.0,-1061.0,39.0,-322.0,237.0,142.0,28.0,-4000.0
4000.0,-429.0,32.0,-409.0,216.0,138.0,1.0,-4000.0
3443.0,15.0,77.0,-332.0,143.0,99.0,-47.0,-4000.0
935.0,80.0,166.0,-44.0,111.0,46.0,-137.0,-3667.0
1282.0,-40.0,89.0,28.0,60.0,99.0,-130.0,-3203.0
887.0,-188.0,-328.0,-107.0,31.0,88.0,18.0,-2735.0
308.0,-299.0,-541.0,-239.0,30.0,138.0,188.0,-2411.0
399.0,-91.0,-377.0,-301.0,-58.0,124.0,259.0,-2478.0
1897.0,-100.0,-403.0,-92.0,-193.0,92.0,181.0,-2179.0
668.0,-247.0,-59.0,-81.0,-248.0,196.0,166.0,-1906.0
-580.0,-75.0,415.0,-72.0,-275.0,278.0,48.0,-1526.0
-974.0,908.0,-18.0,88.0,-198.0,201.0,-39.0,-1062.0
-4000.0,2997.0,-2413.0,179.0,-188.0,91.0,-12.0,-1135.0
-4000.0,3982.0,-4000.0,447.0,-239.0,110.0,-65.0,-1018.0
-4000.0,2791.0,-4000.0,472.0,-238.0,43.0,-74.0,-915.0
-4000.0,1774.0,-4000.0,442.0,-211.0,-27.0,-110.0,-649.0
-4000.0,186.0,-1917.0,323.0,-95.0,-85.0,-118.0,-224.0
-4000.0,-1155.0,1615.0,90.0,37.0,-97.0,-119.0,-38.0
-1984.0,-1415.0,3072.0,-48.0,174.0,-130.0,-108.0,174.0
595.0,-1794.0,2455.0,-147.0,219.0,-63.0,-58.0,94.0
1807.0,-1785.0,2333.0,-252.0,282.0,20.0,-12.0,138.0
4000.0,-1667.0,3434.0,-314.0,302.0,28.0,-2.0,369.0
4000.0,-1160.0,4000.0,-255.0,306.0,115.0,73.0,608.0
4000.0,-793.0,4000.0,-336.0,360.0,-13.0,113.0,666.0
-2570.0,-343.0,3173.0,-348.0,338.0,-134.0,65.0,634.0
-4000.0,941.0,-414.0,-228.0,363.0,-56.0,88.0,670.0
-4000.0,1883.0,-1537.0,-59.0,375.0,-104.0,90.0,662.0
-4000.0,1357.0,-1748.0,174.0,348.0,144.0,-4.0,1063.0
-4000.0,803.0,-3437.0,156.0,267.0,636.0,-55.0,1281.0
-4000.0,395.0,-4000.0,75.0,253.0,654.0,-72.0,811.0
-2076.0,13.0,-3111.0,199.0,310.0,339.0,-152.0,296.0
-1352.0,-159.0,562.0,245.0,375.0,66.0,-138.0,14.0
697.0,-606.0,4000.0,207.0,419.0,141.0,-159.0,-181.0
1181.0,-352.0,4000.0,229.0,440.0,158.0,-176.0,77.0
1456.0,836.0,4000.0,242.0,444.0,12.0,-221.0,-68.0
2987.0,2534.0,4000.0,280.0,454.0,250.0,-287.0,-787.0
3562.0,2274.0,4000.0,288.0,534.0,366.0,-258.0,-2115.0
4000.0,1167.0,1900.0,263.0,570.0,303.0,-290.0,-2601.0
3314.0,599.0,-1229.0,313.0,497.0,220.0,-261.0,-2122.0
3443.0,537.0,-3343.0,377.0,484.0,237.0,-268.0,-1859.0
3265.0,1120.0,-3756.0,419.0,489.0,282.0,-200.0,-862.0
2523.0,99.0,-4000.0,337.0,440.0,333.0,-176.0,-671.0
2014.0,-1350.0,-4000.0,187.0,432.0,376.0,-200.0,-778.0
2614.0,-1802.0,-4000.0,132.0,406.0,296.0,-172.0,-10.0
4000.0,-2530.0,-3946.0,99.0,431.0,309.0,-224.0,1272.0
4000.0,-2794.0,-3537.0,77.0,390.0,241.0,-84.0,2507.0
3721.0,-1619.0,-3781.0,120.0,335.0,155.0,-72.0,3144.0
2458.0,-1403.0,-4000.0,105.0,297.0,1.0,-235.0,3552.0
1875.0,-2190.0,-4000.0,-53.0,169.0,-117.0,-313.0,4000.0
804.0,-2080.0,-4000.0,-263.0,81.0,-240.0,-424.0,4000.0
-172.0,-943.0,-4000.0,-458.0,7.0,-439.0,-542.0,4000.0
-1337.0,-239.0,-4000.0,-586.0,-54.0,-555.0,-580.0,4000.0
-1931.0,157.0,-4000.0,-621.0,-158.0,-716.0,-607.0,4000.0
-2012.0,2138.0,-4000.0,-595.0,-234.0,-741.0,-620.0,4000.0
-2126.0,3571.0,1503.0,-554.0,-317.0,-710.0,-676.0,4000.0
-2061.0,3832.0,4000.0,-507.0,-421.0,-513.0,-620.0,4000.0
-1837.0,3571.0,4000.0,-511.0,-507.0,-245.0,-555.0,4000.0
-1682.0,3441.0,4000.0,-495.0,-599.0,-94.0,-536.0,4000.0
-1670.0,4000.0,4000.0,-544.0,-631.0,-4.0,-485.0,4000.0
-1352.0,4000.0,4000.0,-572.0,-709.0,81.0,-489.0,4000.0
-1087.0,4000.0,4000.0,-441.0,-812.0,248.0,-522.0,4000.0
-286.0,2295.0,4000.0,-291.0,-901.0,406.0,-506.0,3983.0
102.0,-640.0,4000.0,-174.0,-947.0,506.0,-349.0,3065.0
303.0,-3782.0,4000.0,25.0,-942.0,492.0,-290.0,2544.0
798.0,-4000.0,2989.0,393.0,-918.0,538.0,-390.0,1989.0
1026.0,-4000.0,1192.0,603.0,-877.0,641.0,-420.0,1272.0
758.0,-4000.0,-1927.0,598.0,-869.0,627.0,-390.0,863.0
-85.0,-4000.0,-4000.0,626.0,-1007.0,528.0,-310.0,312.0
-323.0,-4000.0,-4000.0,533.0,-1200.0,348.0,30.0,51.0
313.0,-4000.0,-4000.0,518.0,-1272.0,203.0,402.0,-390.0
603.0,-1932.0,-4000.0,565.0,-1398.0,105.0,455.0,-572.0
594.0,-696.0,-4000.0,488.0,-1463.0,-86.0,335.0,-518.0
680.0,862.0,-4000.0,490.0,-1515.0,-128.0,250.0,-362.0
27.0,2168.0,-4000.0,520.0,-1691.0,-140.0,155.0,-400.0
-310.0,2156.0,-4000.0,620.0,-1782.0,-159.0,1.0,-484.0
-508.0,1071.0,-4000.0,533.0,-1795.0,2.0,-29.0,-175.0
-1866.0,1038.0,-4000.0,290.0,-1398.0,145.0,-17.0,-109.0
-2283.0,1778.0,-4000.0,-32.0,-925.0,119.0,45.0,-297.0
-274.0,1908.0,-4000.0,-373.0,-877.0,-14.0,102.0,-818.0
492.0,1249.0,-4000.0,-678.0,-877.0,8.0,69.0,-1432.0
1169.0,1227.0,-1630.0,-746.0,-901.0,-40.0,145.0,-1924.0
1754.0,1041.0,781.0,-594.0,-856.0,-342.0,242.0,-2276.0
825.0,794.0,2989.0,-498.0,-869.0,-1112.0,188.0,-2629.0
253.0,530.0,4000.0,-293.0,-899.0,-1949.0,205.0,-2941.0
-212.0,933.0,4000.0,-214.0,-856.0,-1753.0,349.0,-3073.0
-1000.0,1161.0,4000.0,-239.0,-788.0,-797.0,474.0,-3007.0
-4000.0,556.0,4000.0,-279.0,-537.0,201.0,355.0,-2800.0
-4000.0,737.0,2913.0,-226.0,-364.0,1315.0,77.0,-2347.0
1420.0,696.0,1562.0,-47.0,-307.0,1666.0,116.0,-1774.0
2415.0,428.0,212.0,168.0,-234.0,791.0,138.0,-1709.0
1752.0,227.0,-622.0,210.0,-278.0,71.0,68.0,-1540.0
-2851.0,412.0,-563.0,87.0,-254.0,172.0,112.0,-1259.0
-3850.0,517.0,-679.0,191.0,-225.0,209.0,120.0,-1315.0
1189.0,569.0,-1341.0,564.0,-194.0,-48.0,181.0,-1455.0
1959.0,363.0,-2045.0,785.0,-90.0,-45.0,236.0,-1632.0
3200.0,1.0,-971.0,663.0,-67.0,262.0,146.0,-1658.0
1175.0,325.0,-84.0,364.0,-8.0,608.0,-1.0,-1590.0
1832.0,384.0,-1237.0,-136.0,-36.0,341.0,-156.0,-1461.0
2777.0,-550.0,-4000.0,-615.0,-70.0,-113.0,-42.0,-1143.0
-4000.0,-2080.0,-4000.0,-645.0,72.0,-228.0,398.0,-1050.0
-4000.0,-2009.0,-4000.0,-498.0,302.0,-154.0,767.0,-1429.0
-4000.0,-696.0,-4000.0,-633.0,570.0,-11.0,856.0,-1372.0
4000.0,-17.0,-4000.0,-198.0,866.0,-28.0,832.0,-875.0
4000.0,83.0,589.0,48.0,1292.0,-175.0,823.0,-360.0
4000.0,210.0,4000.0,56.0,1644.0,-217.0,510.0,-142.0
4000.0,406.0,4000.0,227.0,1865.0,-136.0,283.0,-240.0
4000.0,394.0,3462.0,-93.0,2189.0,90.0,197.0,95.0
1246.0,400.0,-1088.0,-414.0,2513.0,290.0,-6.0,86.0
-4000.0,316.0,-2770.0,-782.0,2681.0,172.0,-107.0,-471.0
-4000.0,203.0,-4000.0,-818.0,2516.0,235.0,-135.0,-236.0
-4000.0,607.0,-4000.0,-684.0,2231.0,439.0,-110.0,177.0
-4000.0,1266.0,-3473.0,-511.0,1901.0,504.0,-261.0,-88.0
-4000.0,1559.0,719.0,-182.0,1666.0,510.0,-394.0,-330.0
-4000.0,1945.0,4000.0,-45.0,1474.0,-91.0,-200.0,-859.0
-4000.0,2352.0,4000.0,-125.0,1205.0,-575.0,-159.0,-1404.0
-4000.0,2426.0,4000.0,-344.0,967.0,-555.0,85.0,-1440.0
-4000.0,2036.0,4000.0,-233.0,896.0,-516.0,523.0,-1123.0
-3478.0,1370.0,4000.0,162.0,880.0,-354.0,433.0,-853.0
-2374.0,135.0,4000.0,271.0,953.0,-442.0,384.0,-824.0
-443.0,-1123.0,4000.0,472.0,1032.0,-729.0,425.0,-562.0
32.0,-531.0,4000.0,988.0,1051.0,-1005.0,597.0,-471.0
954.0,355.0,4000.0,1155.0,1026.0,-565.0,767.0,-484.0
1606.0,-305.0,4000.0,1285.0,1083.0,69.0,608.0,-14.0
640.0,-549.0,-1881.0,1424.0,1287.0,394.0,432.0,42.0
393.0,-263.0,-4000.0,1175.0,1527.0,909.0,120.0,-281.0
1625.0,-239.0,-4000.0,524.0,1734.0,921.0,95.0,373.0
2328.0,99.0,-4000.0,-131.0,1769.0,599.0,111.0,1259.0
2418.0,-4.0,-4000.0,-373.0,1704.0,368.0,31.0,1150.0
2781.0,-404.0,-4000.0,-487.0,1722.0,504.0,99.0,751.0
2545.0,-621.0,-4000.0,-409.0,1710.0,536.0,223.0,645.0
1949.0,-541.0,-4000.0,-289.0,1531.0,636.0,404.0,1247.0
911.0,-553.0,-4000.0,-33.0,1454.0,933.0,398.0,1502.0
-33.0,-539.0,-4000.0,345.0,1462.0,-277.0,308.0,772.0
-645.0,-475.0,-4000.0,728.0,1201.0,-1669.0,-101.0,-284.0
-1076.0,-479.0,-4000.0,733.0,896.0,-1811.0,-603.0,-1148.0
-1261.0,-369.0,-4000.0,-73.0,607.0,-1010.0,-711.0,-1148.0
-1202.0,-200.0,-3396.0,-979.0,285.0,-382.0,-326.0,-889.0
-815.0,-74.0,-2835.0,-1621.0,17.0,-382.0,132.0,-496.0
-1175.0,-153.0,-2151.0,-2177.0,-267.0,-150.0,325.0,-549.0
-2155.0,-183.0,-1492.0,-2116.0,-382.0,-436.0,604.0,-883.0
-1670.0,-253.0,-1199.0,-1712.0,-577.0,-594.0,734.0,241.0
-1391.0,-379.0,-676.0,-1500.0,-710.0,118.0,1141.0,1085.0
-3543.0,-444.0,-550.0,-1174.0,-838.0,607.0,1866.0,817.0
-2582.0,-440.0,-1362.0,-940.0,-1200.0,823.0,1899.0,426.0
1307.0,-440.0,-3657.0,-520.0,-1265.0,1994.0,1457.0,26.0
1887.0,-412.0,-4000.0,-231.0,-1184.0,2190.0,1248.0,591.0
538.0,-342.0,-4000.0,-305.0,-991.0,667.0,968.0,941.0
-3034.0,-338.0,-2346.0,-328.0,-616.0,738.0,832.0,781.0
-2061.0,-358.0,-277.0,-782.0,-268.0,1573.0,897.0,695.0
4000.0,-328.0,2681.0,-1180.0,253.0,1148.0,889.0,434.0
4000.0,-351.0,4000.0,-1537.0,766.0,160.0,812.0,742.0
4000.0,-531.0,4000.0,-2340.0,1068.0,38.0,791.0,831.0
2518.0,-601.0,4000.0,-3376.0,1222.0,526.0,881.0,88.0
2809.0,-590.0,2917.0,-4000.0,1329.0,368.0,1056.0,-414.0
3631.0,-688.0,846.0,-4000.0,1462.0,241.0,1214.0,-269.0
4000.0,-753.0,-696.0,-4000.0,1901.0,2.0,1214.0,-262.0
4000.0,-621.0,-512.0,-4000.0,2748.0,-1020.0,1189.0,-334.0
2874.0,-505.0,1322.0,-4000.0,3297.0,-1396.0,1084.0,-462.0
660.0,-375.0,2276.0,-3719.0,3281.0,-642.0,717.0,-1315.0
-2401.0,-219.0,2715.0,-3299.0,2941.0,-318.0,136.0,-2165.0
-4000.0,-183.0,2783.0,-2641.0,1982.0,-993.0,-326.0,-1743.0
-4000.0,-158.0,2027.0,-1832.0,855.0,-2156.0,-771.0,-907.0
-4000.0,-109.0,-768.0,-1329.0,-188.0,-2479.0,-1228.0,-419.0
-4000.0,122.0,-4000.0,-1070.0,-1318.0,-1607.0,-1527.0,15.0
-2155.0,309.0,-4000.0,-523.0,-2159.0,-875.0,-1914.0,-65.0
1767.0,162.0,-4000.0,85.0,-2806.0,286.0,-1979.0,-42.0
3635.0,36.0,-4000.0,541.0,-3898.0,1340.0,-1258.0,0.0
2976.0,30.0,-4000.0,1000.0,-4000.0,1904.0,196.0,-332.0
1065.0,60.0,2276.0,1436.0,-4000.0,2775.0,889.0,-940.0
387.0,109.0,4000.0,2258.0,-4000.0,2568.0,272.0,-1632.0
-274.0,-128.0,4000.0,3243.0,-4000.0,1786.0,-565.0,-1330.0
-1799.0,-114.0,4000.0,3963.0,-4000.0,1312.0,-1234.0,-801.0
-2659.0,147.0,4000.0,4000.0,-4000.0,699.0,-1728.0,-411.0
-2810.0,290.0,1479.0,4000.0,-4000.0,348.0,-2080.0,-177.0
-1704.0,837.0,-4000.0,4000.0,-4000.0,87.0,-2508.0,-366.0
-1152.0,1453.0,-4000.0,4000.0,-4000.0,-1062.0,-2610.0,-262.0
-771.0,1423.0,-4000.0,4000.0,-4000.0,-1636.0,-2117.0,-10.0
-308.0,867.0,1939.0,4000.0,-4000.0,-1004.0,-1588.0,369.0
-274.0,341.0,4000.0,4000.0,-3521.0,-280.0,-1397.0,286.0
-258.0,217.0,4000.0,4000.0,-2818.0,415.0,-1527.0,15.0
90.0,536.0,4000.0,4000.0,-1638.0,197.0,-1716.0,-380.0
346.0,270.0,4000.0,4000.0,-869.0,-1010.0,-1767.0,-2004.0
705.0,-466.0,4000.0,4000.0,118.0,-1115.0,-1822.0,-2554.0
668.0,-1285.0,1868.0,4000.0,967.0,-362.0,-1684.0,-679.0
430.0,-2099.0,-1171.0,4000.0,1840.0,-58.0,-1583.0,413.0
318.0,-2680.0,-2964.0,3975.0,2425.0,-59.0,-1513.0,1195.0
-2125.0,-3513.0,-3754.0,3877.0,2889.0,-394.0,-1377.0,2575.0
-4000.0,-3850.0,-4000.0,3426.0,3363.0,-519.0,-1317.0,3275.0
-4000.0,-3327.0,-4000.0,2518.0,3466.0,-476.0,-1271.0,3523.0
-1764.0,-2834.0,-4000.0,2281.0,3707.0,-423.0,-1063.0,3079.0
-1950.0,-1867.0,-4000.0,2281.0,4000.0,-417.0,-542.0,3031.0
-2061.0,-816.0,-4000.0,1509.0,4000.0,-262.0,-338.0,3014.0
4000.0,-117.0,-4000.0,1053.0,4000.0,-258.0,-217.0,2835.0
4000.0,920.0,-4000.0,829.0,4000.0,-358.0,177.0,2561.0
4000.0,1311.0,-4000.0,139.0,4000.0,-344.0,205.0,2041.0
4000.0,1323.0,-4000.0,-521.0,4000.0,-391.0,138.0,1346.0
4000.0,1689.0,-4000.0,-560.0,4000.0,-314.0,486.0,456.0
3004.0,2168.0,-3730.0,-914.0,4000.0,-354.0,824.0,-339.0
-3441.0,2673.0,-2633.0,-1565.0,4000.0,-175.0,1098.0,-1256.0
-4000.0,2921.0,-1362.0,-1935.0,4000.0,26.0,1189.0,-1390.0
-4000.0,2932.0,785.0,-1857.0,3346.0,105.0,1084.0,-999.0
-4000.0,3258.0,4000.0,-1589.0,1247.0,152.0,991.0,-862.0
-4000.0,3789.0,4000.0,-1646.0,-1044.0,194.0,929.0,-614.0
-4000.0,4000.0,4000.0,-1703.0,-3510.0,154.0,954.0,-254.0
-4000.0,3079.0,4000.0,-1621.0,-4000.0,-53.0,921.0,-391.0
-3870.0,947.0,4000.0,-1095.0,-4000.0,-87.0,702.0,-467.0
-3636.0,-604.0,4000.0,-896.0,-4000.0,-228.0,514.0,-156.0
-2892.0,-1415.0,1313.0,-1203.0,-4000.0,-373.0,551.0,22.0
-2486.0,-1643.0,-996.0,-1703.0,-4000.0,-546.0,563.0,-26.0
-2631.0,-1870.0,-2680.0,-2081.0,-4000.0,-672.0,702.0,-105.0
-706.0,-631.0,-4000.0,-2377.0,-4000.0,-371.0,661.0,-248.0
1110.0,173.0,-3795.0,-3023.0,-4000.0,-18.0,394.0,-406.0
2545.0,420.0,-3095.0,-3054.0,-4000.0,-548.0,138.0,-496.0
3135.0,933.0,-2951.0,-2831.0,-4000.0,-572.0,-12.0,-562.0
1084.0,595.0,-3095.0,-2444.0,-3726.0,268.0,26.0,-511.0
-3734.0,746.0,-2652.0,-1349.0,-2870.0,544.0,-80.0,-534.0
-4000.0,933.0,-2656.0,-623.0,-1898.0,671.0,-741.0,-345.0
-4000.0,889.0,-2888.0,-523.0,-1013.0,667.0,-2337.0,-159.0
-4000.0,294.0,-2513.0,193.0,-267.0,628.0,-3390.0,-620.0
-3412.0,-68.0,-2122.0,1981.0,219.0,576.0,-2465.0,242.0
4000.0,-357.0,-1518.0,3708.0,538.0,460.0,-285.0,3079.0
4000.0,-716.0,-833.0,2722.0,622.0,384.0,1141.0,4000.0
4000.0,-633.0,-416.0,1275.0,692.0,433.0,1406.0,4000.0
4000.0,-310.0,-186.0,1216.0,651.0,394.0,1119.0,4000.0
4000.0,-220.0,99.0,246.0,248.0,296.0,642.0,3198.0
4000.0,-287.0,309.0,392.0,-38.0,293.0,216.0,961.0
3739.0,-139.0,332.0,1535.0,-419.0,191.0,-32.0,-1612.0
2715.0,-302.0,246.0,2335.0,-1137.0,221.0,-113.0,-4000.0
2052.0,-411.0,215.0,1045.0,-1853.0,293.0,-69.0,-4000.0
-262.0,-361.0,165.0,-1477.0,-2676.0,693.0,-15.0,-4000.0
-2708.0,-19.0,72.0,-3156.0,-3391.0,1136.0,-133.0,-4000.0
-4000.0,103.0,7.0,-4000.0,-2692.0,1006.0,-167.0,-3695.0
-3619.0,121.0,-2.0,-4000.0,-679.0,589.0,-47.0,-1839.0
-2631.0,115.0,-281.0,-4000.0,1800.0,237.0,147.0,-1126.0
-1459.0,20.0,-912.0,-4000.0,4000.0,-281.0,10.0,-787.0
-1298.0,91.0,-1852.0,-3623.0,4000.0,-661.0,-393.0,-1013.0
-1271.0,174.0,-2680.0,-2647.0,4000.0,-810.0,-946.0,-1148.0
-1430.0,281.0,-3030.0,-1416.0,4000.0,-1237.0,-1201.0,-203.0
-1231.0,203.0,-3303.0,-466.0,4000.0,-1237.0,-1123.0,296.0
-915.0,70.0,-2370.0,773.0,4000.0,-1237.0,-802.0,465.0
-1235.0,-216.0,-841.0,1275.0,2955.0,-1005.0,67.0,503.0
-2855.0,-360.0,-259.0,1314.0,1077.0,336.0,441.0,629.0
-3697.0,-318.0,311.0,668.0,-326.0,681.0,336.0,645.0
-2957.0,-318.0,132.0,551.0,-1055.0,315.0,642.0,680.0
-1532.0,-310.0,-1638.0,915.0,-1434.0,616.0,1137.0,874.0
876.0,-393.0,-1213.0,1175.0,-1398.0,693.0,1158.0,745.0
-2498.0,-531.0,3202.0,1059.0,-1163.0,684.0,1184.0,666.0
-4000.0,-606.0,4000.0,583.0,-1120.0,853.0,1223.0,556.0
-756.0,-618.0,4000.0,598.0,-1117.0,597.0,1208.0,526.0
3884.0,-575.0,4000.0,838.0,-1077.0,124.0,1255.0,503.0
4000.0,-478.0,4000.0,1163.0,-918.0,-252.0,1270.0,491.0
4000.0,-440.0,4000.0,1302.0,-549.0,-174.0,1206.0,397.0
2222.0,-343.0,3575.0,1360.0,-95.0,167.0,945.0,218.0
705.0,-182.0,3983.0,1175.0,428.0,191.0,832.0,124.0
-784.0,16.0,3952.0,1025.0,1006.0,208.0,433.0,-71.0
-1723.0,189.0,3380.0,785.0,1398.0,241.0,152.0,-136.0
2418.0,212.0,1426.0,283.0,1352.0,818.0,229.0,-135.0
4000.0,99.0,-3605.0,93.0,1188.0,1214.0,290.0,-220.0
3110.0,-102.0,-4000.0,199.0,902.0,1531.0,144.0,-301.0
194.0,-352.0,-4000.0,142.0,477.0,1787.0,-30.0,-286.0
790.0,-671.0,-4000.0,-210.0,11.0,823.0,-159.0,-305.0
-953.0,-814.0,-4000.0,-782.0,-356.0,327.0,-797.0,-196.0
-2899.0,-771.0,-2578.0,-1231.0,-681.0,351.0,-716.0,92.0
-4000.0,-671.0,4000.0,-1500.0,-1043.0,590.0,543.0,338.0
-4000.0,-631.0,4000.0,-1638.0,-1423.0,-33.0,1931.0,564.0
-4000.0,-705.0,4000.0,-1486.0,-1833.0,-1422.0,2036.0,544.0
-4000.0,-677.0,4000.0,-1329.0,-2247.0,-1734.0,1341.0,292.0
-4000.0,-536.0,2018.0,-1235.0,-2664.0,-3453.0,510.0,27.0
-4000.0,-435.0,4000.0,-1200.0,-2989.0,-4000.0,-657.0,-89.0
-2114.0,-293.0,4000.0,-979.0,-3197.0,-4000.0,-1228.0,108.0
2597.0,-112.0,4000.0,-833.0,-3327.0,-663.0,-745.0,434.0
4000.0,44.0,4000.0,-584.0,-3185.0,170.0,195.0,700.0
4000.0,282.0,4000.0,-211.0,-2818.0,41.0,550.0,686.0
2328.0,347.0,2278.0,-10.0,-2550.0,1795.0,730.0,391.0
1175.0,160.0,-466.0,189.0,-1992.0,1527.0,790.0,189.0
42.0,43.0,-1758.0,-120.0,-1137.0,256.0,661.0,16.0
-974.0,-118.0,-4000.0,-328.0,-571.0,-706.0,380.0,-76.0
-1552.0,-134.0,-4000.0,-45.0,-124.0,376.0,303.0,-129.0
530.0,149.0,-4000.0,81.0,505.0,427.0,299.0,-196.0
1450.0,289.0,-4000.0,255.0,1396.0,376.0,171.0,-226.0
1637.0,363.0,-4000.0,370.0,2320.0,1051.0,191.0,-333.0
-493.0,436.0,-4000.0,329.0,3074.0,953.0,79.0,-370.0
-4000.0,456.0,-4000.0,87.0,3707.0,1645.0,81.0,-401.0
-4000.0,460.0,-4000.0,-133.0,4000.0,1722.0,27.0,-431.0
-4000.0,384.0,-4000.0,-22.0,4000.0,1644.0,34.0,-464.0
-4000.0,443.0,-3897.0,-12.0,4000.0,1009.0,100.0,-512.0
4000.0,435.0,-3213.0,-92.0,4000.0,684.0,163.0,-397.0
4000.0,99.0,-1982.0,-48.0,4000.0,266.0,137.0,-164.0
4000.0,-50.0,-1203.0,3.0,4000.0,62.0,61.0,9.0
4000.0,-12.0,-622.0,18.0,3660.0,-159.0,28.0,177.0
4000.0,-93.0,-342.0,129.0,3363.0,-407.0,7.0,514.0
4000.0,-59.0,-73.0,110.0,3006.0,-342.0,42.0,621.0
4000.0,70.0,-219.0,60.0,2683.0,-250.0,54.0,651.0
3843.0,73.0,-190.0,169.0,2386.0,0.0,110.0,719.0
1670.0,-46.0,318.0,258.0,2160.0,-169.0,59.0,662.0
-1149.0,-82.0,703.0,276.0,1865.0,-27.0,13.0,564.0
-3087.0,-69.0,-99.0,171.0,1538.0,2.0,-71.0,634.0
-4000.0,47.0,-1455.0,179.0,1222.0,-80.0,-80.0,804.0
-4000.0,369.0,-2524.0,465.0,1032.0,-411.0,-137.0,788.0
-4000.0,595.0,-2481.0,858.0,880.0,-459.0,-212.0,686.0
-4000.0,672.0,-798.0,558.0,641.0,-722.0,-176.0,629.0
-4000.0,663.0,757.0,158.0,432.0,-810.0,-212.0,666.0
-3335.0,686.0,3054.0,337.0,282.0,-750.0,-200.0,606.0
-2593.0,615.0,3871.0,0.0,65.0,-810.0,-202.0,499.0
-2214.0,500.0,3369.0,-384.0,-123.0,66.0,-188.0,544.0
-1682.0,453.0,2410.0,-625.0,-209.0,882.0,-209.0,556.0
-1762.0,412.0,495.0,-871.0,-356.0,1466.0,-226.0,485.0
-1031.0,355.0,-971.0,-366.0,-446.0,1026.0,-211.0,528.0
-935.0,269.0,-1412.0,548.0,-556.0,358.0,-208.0,404.0
-850.0,261.0,-1563.0,1155.0,-669.0,26.0,-238.0,-192.0
-589.0,260.0,-1229.0,1761.0,-644.0,-113.0,-226.0,-718.0
-149.0,289.0,-194.0,2062.0,-730.0,-110.0,-185.0,-809.0
135.0,262.0,124.0,1424.0,-812.0,-112.0,-159.0,-775.0
452.0,173.0,546.0,895.0,-883.0,-45.0,-147.0,-562.0
216.0,-45.0,496.0,488.0,-947.0,-162.0,-163.0,-88.0
-620.0,-125.0,154.0,209.0,-978.0,-80.0,-162.0,163.0
-1547.0,-52.0,-88.0,20.0,-877.0,-47.0,-161.0,218.0
-3400.0,-259.0,-336.0,-579.0,-791.0,225.0,-156.0,489.0
-3412.0,-448.0,-90.0,-702.0,-877.0,738.0,-117.0,947.0
-865.0,-482.0,598.0,-560.0,-704.0,1452.0,-50.0,1053.0
-443.0,-509.0,1062.0,155.0,-514.0,1657.0,-10.0,778.0
-779.0,-468.0,-300.0,1892.0,-437.0,1214.0,-21.0,543.0
2809.0,-236.0,-4000.0,2022.0,-314.0,877.0,-18.0,213.0
4000.0,-133.0,-4000.0,435.0,-425.0,4.0,-3.0,196.0
4000.0,-167.0,-3926.0,821.0,-360.0,-890.0,-9.0,397.0
4000.0,-163.0,-1498.0,2022.0,-2.0,-1780.0,-17.0,467.0
4000.0,-93.0,2095.0,51.0,355.0,-3763.0,-10.0,241.0
-70.0,73.0,4000.0,-2968.0,522.0,-4000.0,-46.0,-514.0
-2114.0,338.0,4000.0,-3038.0,547.0,-3311.0,-54.0,-135.0
-2179.0,803.0,4000.0,-1703.0,554.0,-924.0,8.0,-202.0
-1016.0,1136.0,4000.0,-1470.0,467.0,-224.0,4.0,-753.0
-1788.0,1331.0,2681.0,-2972.0,480.0,550.0,20.0,-358.0
-2498.0,1323.0,1692.0,-4000.0,531.0,1378.0,94.0,-545.0
-2350.0,601.0,1609.0,-3934.0,589.0,1644.0,123.0,-418.0
-1799.0,-154.0,1237.0,-4000.0,562.0,1142.0,-37.0,-345.0
-1298.0,-497.0,1794.0,-4000.0,537.0,831.0,-122.0,-431.0
-775.0,-822.0,2135.0,-4000.0,389.0,1058.0,-75.0,-362.0
-416.0,-1030.0,1704.0,-3023.0,180.0,805.0,-77.0,-362.0
-563.0,-1067.0,572.0,-1461.0,162.0,616.0,0.0,-152.0
-584.0,-932.0,-576.0,864.0,3.0,400.0,-23.0,-16.0
-248.0,-869.0,-1353.0,2543.0,-223.0,361.0,-98.0,78.0
273.0,-836.0,-2057.0,2347.0,-356.0,241.0,-174.0,116.0
-193.0,-611.0,-2202.0,3111.0,-213.0,160.0,-159.0,230.0
-4000.0,-492.0,-2627.0,4000.0,-79.0,123.0,-68.0,214.0
-4000.0,-448.0,-3307.0,4000.0,-7.0,88.0,315.0,122.0
-4000.0,-293.0,-4000.0,4000.0,-172.0,105.0,720.0,-159.0
4000.0,-209.0,-4000.0,3489.0,-549.0,44.0,661.0,-622.0
4000.0,-79.0,-4000.0,2337.0,-883.0,44.0,548.0,-627.0
4000.0,99.0,-3872.0,1672.0,-1129.0,5.0,284.0,-350.0
4000.0,215.0,-3420.0,577.0,-1129.0,51.0,143.0,-398.0
4000.0,328.0,-3795.0,-456.0,-1202.0,10.0,49.0,-362.0
1026.0,229.0,-3611.0,-1086.0,-1202.0,77.0,-48.0,-143.0
-2172.0,-3.0,-1846.0,-1625.0,-1198.0,50.0,-17.0,-221.0
-3372.0,-168.0,1953.0,-1526.0,-1185.0,7.0,-53.0,-223.0
-3489.0,-188.0,4000.0,-1675.0,-1052.0,42.0,-189.0,-269.0
-2389.0,146.0,4000.0,-920.0,-877.0,44.0,-417.0,-136.0
-2643.0,253.0,4000.0,103.0,-850.0,90.0,-371.0,-18.0
-2322.0,239.0,4000.0,467.0,-856.0,38.0,-167.0,92.0
-2564.0,254.0,3236.0,980.0,-792.0,96.0,25.0,304.0
-1668.0,64.0,402.0,1359.0,-853.0,118.0,31.0,275.0
-1267.0,-28.0,-772.0,1302.0,-744.0,64.0,73.0,249.0
-1131.0,-88.0,-1982.0,1080.0,-738.0,-42.0,-189.0,133.0
-1027.0,-71.0,-3095.0,764.0,-840.0,-135.0,-790.0,134.0
-2693.0,117.0,-3461.0,442.0,-883.0,-172.0,-906.0,178.0
-4000.0,69.0,-2513.0,272.0,-857.0,-279.0,-219.0,275.0
-4000.0,-171.0,-1831.0,-6.0,-792.0,-284.0,795.0,474.0
-261.0,-83.0,-776.0,-14.0,-679.0,-187.0,1288.0,609.0
4000.0,-65.0,-259.0,-78.0,-669.0,-134.0,1345.0,612.0
4000.0,-120.0,-568.0,-418.0,-791.0,-146.0,832.0,531.0
4000.0,-168.0,-643.0,-768.0,-883.0,48.0,368.0,455.0
2067.0,-169.0,-450.0,-914.0,-1007.0,403.0,246.0,282.0
-1567.0,-278.0,-379.0,-831.0,-1012.0,1006.0,138.0,153.0
-123.0,-596.0,-1557.0,-589.0,-1129.0,1344.0,170.0,-84.0
4000.0,-658.0,-2086.0,-271.0,-1333.0,636.0,93.0,-257.0
4000.0,-602.0,-2020.0,-149.0,-1463.0,491.0,-145.0,-380.0
3038.0,-483.0,-2300.0,8.0,-1463.0,953.0,-685.0,-395.0
733.0,-261.0,-1765.0,31.0,-1508.0,1077.0,-1058.0,-166.0
-453.0,13.0,-401.0,69.0,-1442.0,953.0,-678.0,33.0
-1707.0,326.0,1501.0,337.0,-1207.0,-101.0,-84.0,129.0
-2773.0,589.0,2730.0,374.0,-1064.0,-1424.0,216.0,47.0
-2387.0,508.0,2665.0,140.0,-934.0,-1434.0,376.0,-181.0
-2486.0,400.0,480.0,113.0,-883.0,432.0,-1.0,-366.0
-1466.0,483.0,-2385.0,243.0,-892.0,220.0,-351.0,-187.0
-1475.0,449.0,-4000.0,73.0,-850.0,-1437.0,-243.0,-125.0
-712.0,403.0,-3946.0,123.0,-751.0,-2274.0,-62.0,-134.0
-575.0,384.0,-362.0,67.0,-602.0,-2351.0,90.0,-89.0
-870.0,263.0,2160.0,-495.0,-408.0,-1753.0,189.0,-175.0
-337.0,183.0,3445.0,-782.0,-307.0,-2206.0,282.0,-168.0
-90.0,149.0,2224.0,-971.0,-73.0,-1242.0,180.0,-202.0
23.0,14.0,-628.0,-1109.0,169.0,-630.0,163.0,-99.0
-407.0,-49.0,-1414.0,-1245.0,364.0,-358.0,116.0,155.0
-1162.0,-131.0,331.0,-1049.0,589.0,365.0,123.0,352.0
-1031.0,-244.0,1550.0,-409.0,682.0,412.0,170.0,473.0
668.0,-379.0,1432.0,-68.0,790.0,1018.0,193.0,556.0
1104.0,-138.0,95.0,231.0,887.0,1854.0,203.0,499.0
1832.0,41.0,-2633.0,158.0,925.0,2190.0,197.0,303.0
3249.0,-122.0,-2318.0,-78.0,859.0,1708.0,191.0,-10.0
1767.0,-58.0,519.0,-306.0,823.0,1163.0,136.0,-356.0
-3400.0,31.0,2924.0,-696.0,876.0,1189.0,116.0,-549.0
-4000.0,40.0,4000.0,-780.0,953.0,1722.0,94.0,-592.0
-4000.0,-183.0,4000.0,-711.0,948.0,1604.0,89.0,-445.0
890.0,-190.0,4000.0,-571.0,874.0,1157.0,42.0,-33.0
4000.0,-14.0,3767.0,-440.0,837.0,271.0,20.0,369.0
4000.0,52.0,1939.0,-263.0,876.0,-1248.0,19.0,450.0
4000.0,65.0,354.0,-147.0,944.0,-2248.0,15.0,426.0
3135.0,102.0,-951.0,118.0,982.0,-2867.0,-41.0,499.0
920.0,217.0,-2073.0,496.0,870.0,-2547.0,-49.0,497.0
-1149.0,393.0,-2847.0,720.0,672.0,-1753.0,-15.0,291.0
-2968.0,542.0,-2757.0,695.0,627.0,-702.0,-23.0,584.0
-2505.0,354.0,-2981.0,712.0,618.0,920.0,50.0,1201.0
-1206.0,228.0,-3201.0,1151.0,641.0,2047.0,71.0,1446.0
-824.0,306.0,-2479.0,1501.0,679.0,3018.0,60.0,1130.0
-1206.0,449.0,-2432.0,1827.0,654.0,2877.0,-139.0,629.0
-1846.0,576.0,-2888.0,2409.0,664.0,2438.0,-575.0,-26.0
-1105.0,428.0,-2704.0,1672.0,666.0,2084.0,-663.0,-1200.0
-784.0,235.0,-2009.0,215.0,692.0,887.0,-48.0,-1860.0
-1352.0,-27.0,-955.0,-86.0,801.0,282.0,535.0,-2362.0
-2258.0,-228.0,-479.0,-639.0,804.0,-237.0,637.0,-2800.0
-4000.0,-239.0,-1362.0,-1114.0,758.0,-2353.0,524.0,-2392.0
-4000.0,-282.0,-1911.0,-782.0,815.0,-3182.0,274.0,-1744.0
-4000.0,-368.0,-2513.0,1483.0,790.0,289.0,62.0,-518.0
3110.0,-468.0,-2889.0,3437.0,748.0,2617.0,-72.0,-46.0
4000.0,-414.0,-841.0,1416.0,683.0,1474.0,-159.0,-389.0
4000.0,-500.0,1745.0,-604.0,550.0,1474.0,-214.0,-415.0
4000.0,-483.0,3202.0,-2094.0,602.0,2418.0,-513.0,-264.0
4000.0,-292.0,3885.0,-3558.0,615.0,1012.0,-517.0,276.0
-1537.0,-156.0,3510.0,-3610.0,570.0,-439.0,-167.0,184.0
-4000.0,69.0,2455.0,-3738.0,641.0,-1912.0,15.0,146.0
-4000.0,239.0,822.0,-2989.0,706.0,-4000.0,140.0,82.0
-4000.0,477.0,-2757.0,-2211.0,672.0,-4000.0,-208.0,-101.0
2393.0,505.0,-4000.0,-1638.0,576.0,-3879.0,-603.0,-43.0
4000.0,305.0,-4000.0,-891.0,519.0,-2853.0,-485.0,144.0
4000.0,241.0,-2940.0,-220.0,513.0,-2992.0,-485.0,615.0
4000.0,223.0,3316.0,663.0,537.0,-3571.0,-55.0,935.0
4000.0,75.0,4000.0,1015.0,562.0,-2608.0,897.0,1020.0
870.0,5.0,4000.0,929.0,612.0,-1057.0,587.0,673.0
-1422.0,4.0,1098.0,1166.0,456.0,-743.0,-534.0,384.0
-2517.0,-159.0,-515.0,1509.0,314.0,-1623.0,-1441.0,442.0
-2320.0,-39.0,1809.0,1379.0,320.0,102.0,-1318.0,825.0
-2749.0,607.0,4000.0,1234.0,237.0,2385.0,50.0,1091.0
-3229.0,1452.0,4000.0,1210.0,121.0,3526.0,1267.0,1003.0
-2631.0,1754.0,4000.0,1957.0,29.0,3461.0,1575.0,666.0
-2192.0,1193.0,4000.0,2127.0,122.0,3148.0,1019.0,28.0
-2114.0,253.0,1508.0,756.0,195.0,2905.0,627.0,-427.0
-1402.0,-785.0,-1635.0,38.0,139.0,2019.0,616.0,-496.0
-934.0,-1472.0,-3136.0,-549.0,103.0,1824.0,669.0,112.0
-821.0,-1851.0,-3149.0,-1089.0,53.0,1417.0,604.0,491.0
-498.0,-1961.0,-2886.0,-1219.0,132.0,1279.0,441.0,290.0
-1227.0,-1720.0,-3343.0,-1109.0,76.0,1148.0,349.0,379.0
-4000.0,-1395.0,-3042.0,-503.0,67.0,1417.0,175.0,239.0
-4000.0,-763.0,-2306.0,-255.0,63.0,1547.0,71.0,33.0
1051.0,182.0,-1700.0,54.0,-14.0,994.0,-47.0,-127.0
-3180.0,947.0,-1581.0,197.0,-27.0,433.0,-126.0,-286.0
-4000.0,1526.0,-2448.0,268.0,-15.0,-378.0,-141.0,-579.0
-4000.0,1526.0,-3689.0,580.0,39.0,-810.0,-151.0,-1049.0
-4000.0,774.0,-3485.0,733.0,1.0,-917.0,-157.0,-723.0
4000.0,162.0,-2513.0,972.0,16.0,-1103.0,-187.0,-313.0
4000.0,-440.0,-2822.0,907.0,84.0,-945.0,-204.0,-297.0
4000.0,-735.0,-4000.0,733.0,102.0,-696.0,-182.0,-158.0
4000.0,-462.0,-3601.0,693.0,86.0,-521.0,-120.0,-134.0
4000.0,-218.0,1192.0,585.0,-42.0,4.0,-92.0,-61.0
4000.0,-216.0,2811.0,182.0,-281.0,208.0,-85.0,0.0
3780.0,-253.0,4000.0,-352.0,-449.0,87.0,-84.0,19.0
-954.0,-79.0,4000.0,-116.0,-345.0,-50.0,-82.0,78.0
-3099.0,-198.0,4000.0,685.0,-114.0,-101.0,-61.0,58.0
-3687.0,-87.0,4000.0,678.0,19.0,-64.0,-33.0,127.0
-4000.0,11.0,4000.0,126.0,-36.0,-54.0,-94.0,112.0
-4000.0,-427.0,1249.0,3.0,-146.0,4.0,-108.0,91.0
-4000.0,-895.0,-1667.0,-546.0,-209.0,-12.0,-65.0,119.0
-3867.0,-1090.0,-4000.0,-1044.0,-346.0,-67.0,-101.0,156.0
-3479.0,-939.0,-4000.0,-1089.0,-425.0,-125.0,-77.0,162.0
-3554.0,-688.0,-4000.0,-984.0,-486.0,-109.0,-37.0,80.0
-3294.0,-328.0,-1406.0,-489.0,-490.0,-86.0,-48.0,67.0
-2903.0,-247.0,585.0,-299.0,-512.0,-85.0,-26.0,72.0
-3799.0,-190.0,2395.0,-22.0,-572.0,-119.0,-39.0,66.0
-4000.0,-12.0,1770.0,99.0,-411.0,-142.0,-22.0,74.0
-4000.0,152.0,636.0,-63.0,36.0,-123.0,39.0,42.0
-4000.0,359.0,-55.0,295.0,233.0,-115.0,61.0,35.0
-1921.0,374.0,-627.0,805.0,-1.0,-130.0,83.0,33.0
4000.0,371.0,-817.0,864.0,24.0,-151.0,104.0,-59.0
4000.0,424.0,-1630.0,467.0,87.0,-116.0,104.0,-135.0
4000.0,386.0,-3278.0,-841.0,138.0,-125.0,99.0,-175.0
701.0,109.0,-4000.0,-1644.0,279.0,-139.0,88.0,-169.0
-2389.0,150.0,-4000.0,-1709.0,228.0,-128.0,62.0,-114.0
-1685.0,326.0,-4000.0,-1712.0,85.0,-94.0,15.0,-28.0
2157.0,373.0,-2513.0,-1281.0,-270.0,-25.0,-69.0,225.0
4000.0,460.0,-729.0,-1081.0,-718.0,8.0,-89.0,156.0
4000.0,483.0,-222.0,-841.0,-781.0,-15.0,17.0,-203.0
4000.0,681.0,1003.0,-660.0,-222.0,-21.0,94.0,66.0
2264.0,1051.0,1432.0,-436.0,281.0,-13.0,135.0,662.0
-1351.0,1227.0,899.0,-102.0,440.0,-41.0,213.0,941.0
-3930.0,1071.0,-747.0,98.0,393.0,-64.0,276.0,1118.0
-3003.0,803.0,-1908.0,-308.0,202.0,-10.0,276.0,1221.0
-1305.0,391.0,-763.0,-475.0,136.0,61.0,172.0,678.0
-493.0,-43.0,-1362.0,-19.0,82.0,90.0,88.0,184.0
-444.0,-432.0,-3991.0,217.0,32.0,114.0,112.0,700.0
-285.0,-633.0,-1914.0,429.0,137.0,96.0,110.0,941.0
-361.0,-509.0,3872.0,354.0,480.0,47.0,69.0,290.0
-974.0,-497.0,4000.0,533.0,469.0,15.0,34.0,319.0
-518.0,-484.0,4000.0,678.0,-111.0,12.0,51.0,555.0
-523.0,-248.0,4000.0,634.0,-404.0,37.0,70.0,-315.0
-258.0,681.0,4000.0,598.0,-20.0,31.0,-19.0,-1058.0
-197.0,1041.0,4000.0,613.0,424.0,33.0,-35.0,-1540.0
-584.0,363.0,2795.0,627.0,415.0,39.0,-65.0,-2256.0
-1261.0,188.0,1770.0,556.0,325.0,8.0,-128.0,-2153.0
-1482.0,-34.0,1045.0,634.0,570.0,6.0,-146.0,-618.0
-2023.0,248.0,60.0,402.0,570.0,81.0,-140.0,359.0
-3571.0,1258.0,-1927.0,341.0,330.0,145.0,-121.0,229.0
-3489.0,2689.0,-3536.0,376.0,440.0,107.0,-127.0,352.0
-4000.0,2463.0,-3691.0,337.0,635.0,50.0,-36.0,645.0
-4000.0,328.0,-3591.0,158.0,182.0,100.0,2.0,434.0
-4000.0,-1077.0,-3846.0,3.0,-621.0,162.0,28.0,249.0
-4000.0,-2757.0,-4000.0,-99.0,-928.0,138.0,189.0,181.0
1095.0,-3034.0,-4000.0,-297.0,-549.0,50.0,237.0,-105.0
4000.0,-2794.0,-4000.0,-178.0,-120.0,-113.0,42.0,-78.0
4000.0,-2757.0,-3242.0,-35.0,-217.0,-174.0,-47.0,-122.0
4000.0,-2548.0,-2999.0,122.0,-295.0,-144.0,-85.0,-117.0
4000.0,-2226.0,-4000.0,139.0,-252.0,-135.0,-147.0,-80.0
4000.0,-895.0,-4000.0,186.0,-119.0,-82.0,-29.0,-111.0
4000.0,-299.0,-4000.0,220.0,-98.0,-95.0,132.0,-128.0
3432.0,233.0,-3176.0,203.0,-55.0,-75.0,99.0,-129.0
-779.0,601.0,-50.0,590.0,-80.0,14.0,-92.0,-45.0
-3543.0,412.0,2460.0,915.0,-138.0,170.0,-162.0,11.0
-4000.0,290.0,4000.0,467.0,-48.0,431.0,-14.0,53.0
-4000.0,428.0,4000.0,-94.0,-1.0,583.0,433.0,151.0
-4000.0,693.0,4000.0,-352.0,27.0,460.0,619.0,265.0
-4000.0,933.0,4000.0,-849.0,11.0,264.0,726.0,247.0
-3950.0,1006.0,3853.0,-636.0,52.0,202.0,823.0,163.0
-3335.0,837.0,2266.0,-595.0,11.0,-9.0,380.0,18.0
-2773.0,587.0,193.0,-1245.0,-8.0,-383.0,171.0,30.0
-2090.0,211.0,-519.0,-1461.0,42.0,-435.0,214.0,66.0
-1762.0,143.0,-512.0,-891.0,93.0,-69.0,104.0,114.0
-1430.0,117.0,-971.0,131.0,77.0,138.0,-36.0,125.0
-1227.0,313.0,-1131.0,699.0,96.0,127.0,-144.0,-63.0
-954.0,369.0,-1143.0,980.0,112.0,271.0,-262.0,-126.0
-761.0,338.0,-1215.0,728.0,52.0,532.0,-227.0,-297.0
-518.0,424.0,-976.0,345.0,61.0,402.0,-97.0,-391.0
-357.0,355.0,-747.0,222.0,31.0,-308.0,-45.0,-274.0
-190.0,374.0,-499.0,171.0,85.0,-620.0,-294.0,-280.0
-113.0,248.0,-442.0,152.0,153.0,-382.0,-644.0,-286.0
17.0,227.0,-414.0,-214.0,207.0,-189.0,-797.0,-234.0
134.0,102.0,-383.0,-139.0,202.0,-161.0,-575.0,-120.0
183.0,124.0,-352.0,-5.0,159.0,250.0,-143.0,-11.0
235.0,241.0,-186.0,-67.0,151.0,1852.0,-161.0,29.0
238.0,175.0,-154.0,-103.0,176.0,2251.0,-383.0,-37.0
267.0,188.0,-42.0,-211.0,224.0,527.0,-436.0,239.0
184.0,75.0,-24.0,-151.0,118.0,-1782.0,-15.0,680.0
187.0,121.0,-20.0,-114.0,102.0,-3959.0,349.0,796.0
243.0,152.0,-11.0,-69.0,47.0,-4000.0,359.0,808.0
260.0,138.0,-31.0,-125.0,-62.0,-2992.0,-41.0,601.0
265.0,157.0,-48.0,-114.0,-69.0,-305.0,-615.0,459.0
208.0,227.0,-24.0,38.0,-228.0,1775.0,-355.0,401.0
176.0,270.0,1.0,77.0,-425.0,2189.0,376.0,296.0
220.0,163.0,-56.0,48.0,-465.0,1547.0,551.0,210.0
250.0,182.0,-40.0,47.0,-460.0,870.0,-82.0,-42.0
303.0,260.0,-70.0,51.0,-437.0,673.0,-642.0,-122.0
373.0,258.0,-69.0,-2.0,-449.0,616.0,-941.0,-71.0
408.0,129.0,-34.0,-9.0,-490.0,402.0,-1250.0,-156.0
363.0,66.0,43.0,35.0,-474.0,374.0,-768.0,143.0
281.0,-88.0,81.0,68.0,-450.0,349.0,148.0,420.0
247.0,-623.0,98.0,-43.0,-470.0,249.0,398.0,159.0
180.0,-552.0,133.0,-141.0,-481.0,210.0,404.0,-161.0
7.0,-145.0,136.0,104.0,-470.0,83.0,141.0,-282.0
-183.0,-286.0,158.0,308.0,-508.0,67.0,-613.0,-278.0
-245.0,-248.0,148.0,207.0,-501.0,54.0,-1368.0,-232.0
-185.0,-94.0,158.0,122.0,-425.0,44.0,-706.0,99.0
-61.0,14.0,191.0,42.0,-328.0,8.0,673.0,373.0
-51.0,-112.0,230.0,-68.0,-323.0,-37.0,642.0,264.0
15.0,-149.0,243.0,-182.0,-376.0,-66.0,300.0,82.0
162.0,-244.0,218.0,-306.0,-374.0,-115.0,759.0,-114.0
208.0,-143.0,177.0,-328.0,-413.0,-273.0,702.0,-340.0
222.0,294.0,231.0,-271.0,-413.0,-384.0,49.0,-397.0
2.0,-231.0,242.0,-458.0,-451.0,-194.0,-620.0,-199.0
-99.0,-347.0,142.0,-623.0,-384.0,-30.0,-1071.0,324.0
15.0,-177.0,146.0,-72.0,-364.0,81.0,-1038.0,896.0
44.0,-127.0,202.0,193.0,-443.0,254.0,-1206.0,947.0
147.0,136.0,177.0,107.0,-566.0,210.0,-481.0,629.0
180.0,167.0,138.0,209.0,-686.0,44.0,1591.0,629.0
95.0,205.0,138.0,126.0,-637.0,-47.0,3021.0,526.0
23.0,-70.0,132.0,130.0,-653.0,-113.0,2973.0,210.0
-23.0,-127.0,99.0,59.0,-588.0,-91.0,2579.0,454.0
28.0,68.0,60.0,22.0,-490.0,-67.0,2048.0,209.0
30.0,103.0,-51.0,4.0,-385.0,-39.0,968.0,-158.0
-308.0,55.0,-152.0,-151.0,-268.0,-48.0,-51.0,-305.0
-1621.0,50.0,-91.0,-182.0,-315.0,-66.0,-294.0,-659.0
-3412.0,30.0,2.0,-147.0,-460.0,-16.0,13.0,-1078.0
-3930.0,33.0,23.0,-62.0,-709.0,-24.0,30.0,-1367.0
-2628.0,7.0,13.0,-35.0,-877.0,-49.0,-408.0,-549.0
-625.0,-27.0,18.0,49.0,-746.0,-83.0,-1309.0,-345.0
-1022.0,40.0,-138.0,34.0,-129.0,49.0,-941.0,-928.0
-1817.0,18.0,-678.0,-56.0,745.0,264.0,-517.0,-881.0
994.0,54.0,-2260.0,40.0,1473.0,374.0,-1397.0,-349.0
4000.0,17.0,-4000.0,99.0,1601.0,341.0,-1141.0,-401.0
4000.0,-98.0,-4000.0,69.0,1292.0,180.0,-135.0,-1083.0
4000.0,-80.0,-4000.0,25.0,987.0,58.0,-275.0,-1404.0
4000.0,-105.0,-841.0,-39.0,749.0,18.0,-678.0,-1105.0
4000.0,-156.0,4000.0,-24.0,664.0,54.0,359.0,-572.0
1791.0,-18.0,4000.0,132.0,554.0,16.0,805.0,-913.0
-654.0,240.0,4000.0,181.0,471.0,-51.0,-352.0,-1514.0
-1324.0,353.0,4000.0,45.0,392.0,-68.0,-839.0,-1579.0
-1996.0,457.0,4000.0,96.0,466.0,-106.0,-359.0,-147.0
-2517.0,615.0,3040.0,329.0,758.0,-152.0,858.0,1323.0
-3734.0,672.0,2027.0,551.0,1026.0,-138.0,1125.0,1892.0
-4000.0,672.0,911.0,533.0,1077.0,-18.0,248.0,2159.0
-4000.0,582.0,-304.0,144.0,1010.0,57.0,730.0,1792.0
-3956.0,321.0,-1166.0,-100.0,953.0,76.0,790.0,1846.0
-844.0,71.0,-1294.0,-355.0,866.0,175.0,339.0,2107.0
1690.0,-76.0,-1347.0,-877.0,713.0,293.0,954.0,2835.0
2846.0,-247.0,-1362.0,-1166.0,618.0,229.0,832.0,2966.0
-945.0,-395.0,-1463.0,-1036.0,635.0,70.0,1143.0,1914.0
-4000.0,-613.0,-1321.0,-580.0,676.0,42.0,1190.0,189.0
-4000.0,-753.0,-1166.0,84.0,688.0,54.0,394.0,-2022.0
-4000.0,-732.0,-1138.0,972.0,716.0,66.0,-6.0,-2375.0
-664.0,-562.0,-1036.0,1606.0,866.0,54.0,-658.0,-1148.0
4000.0,-328.0,-976.0,1033.0,994.0,-6.0,-891.0,-883.0
4000.0,-130.0,-890.0,182.0,808.0,-16.0,-790.0,-744.0
4000.0,-201.0,-781.0,-306.0,622.0,-8.0,-807.0,947.0
4000.0,-562.0,-682.0,-849.0,534.0,-6.0,-737.0,1792.0
4000.0,-692.0,-628.0,-1071.0,424.0,-25.0,-716.0,1638.0
-1110.0,-575.0,-628.0,-1310.0,395.0,-40.0,-837.0,1281.0
-3900.0,-303.0,-811.0,-1288.0,419.0,-27.0,-751.0,550.0
-2761.0,-40.0,-1036.0,-826.0,432.0,-49.0,-750.0,1476.0
-2659.0,50.0,-1088.0,-289.0,137.0,-58.0,-678.0,2237.0
-3334.0,60.0,-943.0,337.0,-81.0,-59.0,-582.0,190.0
-2964.0,-23.0,-763.0,516.0,-484.0,-128.0,-686.0,98.0
-2309.0,-63.0,-1947.0,59.0,-947.0,-186.0,-643.0,3079.0
-1537.0,-137.0,-4000.0,-328.0,-1235.0,-210.0,-613.0,3002.0
-1931.0,-244.0,-4000.0,-328.0,-1369.0,-154.0,-680.0,2118.0
-1652.0,-241.0,-2094.0,42.0,-566.0,-30.0,-542.0,1986.0
-1817.0,-166.0,2811.0,328.0,337.0,72.0,-53.0,-10.0
-2089.0,95.0,4000.0,290.0,1032.0,223.0,-33.0,-2022.0
-2024.0,294.0,4000.0,292.0,941.0,394.0,-80.0,-4000.0
-2191.0,346.0,4000.0,211.0,-200.0,353.0,-42.0,-4000.0
-2436.0,355.0,3054.0,53.0,-942.0,282.0,-107.0,-3060.0
-1560.0,163.0,764.0,-157.0,-647.0,341.0,37.0,-2617.0
-802.0,17.0,231.0,-87.0,46.0,336.0,61.0,-2412.0
-744.0,-72.0,296.0,68.0,273.0,237.0,119.0,-496.0
-203.0,-120.0,-219.0,205.0,-26.0,214.0,85.0,387.0
-273.0,-122.0,-576.0,394.0,-681.0,268.0,155.0,108.0
14.0,-138.0,-1041.0,459.0,-1043.0,298.0,236.0,254.0
33.0,-125.0,-898.0,465.0,-241.0,203.0,374.0,99.0
178.0,-95.0,-820.0,341.0,1156.0,-10.0,576.0,-1135.0
251.0,-57.0,-747.0,341.0,1966.0,-179.0,551.0,-1679.0
237.0,-69.0,-802.0,368.0,2124.0,-279.0,481.0,-1375.0
382.0,-34.0,-661.0,299.0,1148.0,-440.0,286.0,-1659.0
269.0,-16.0,-434.0,219.0,-118.0,-565.0,431.0,-1606.0
322.0,-9.0,-437.0,76.0,-490.0,-635.0,604.0,-1469.0
79.0,15.0,-298.0,-2.0,-449.0,-707.0,598.0,-2253.0
-135.0,0.0,-414.0,-55.0,424.0,-768.0,368.0,-2016.0
-850.0,14.0,-811.0,-25.0,1059.0,-763.0,302.0,-1078.0
-1007.0,11.0,-3290.0,41.0,112.0,-678.0,767.0,-1469.0
23.0,10.0,-4000.0,-14.0,-973.0,-597.0,563.0,-454.0
-741.0,-99.0,-2188.0,-70.0,-1333.0,-555.0,404.0,456.0
-4000.0,-220.0,-1294.0,-165.0,-1333.0,-530.0,432.0,-572.0
-4000.0,-162.0,-2916.0,-227.0,-1049.0,-501.0,274.0,-883.0
-1404.0,-104.0,-808.0,-15.0,-1607.0,-293.0,262.0,-1404.0
3975.0,-80.0,2616.0,45.0,-2173.0,168.0,-32.0,-1078.0
4000.0,-22.0,4000.0,-146.0,-1528.0,445.0,-143.0,-1019.0
4000.0,57.0,4000.0,-178.0,-742.0,651.0,216.0,-1312.0
4000.0,113.0,4000.0,-165.0,88.0,866.0,551.0,-736.0
4000.0,150.0,2989.0,65.0,-288.0,563.0,266.0,-734.0
2518.0,188.0,1769.0,329.0,-1185.0,213.0,-118.0,-759.0
538.0,227.0,1868.0,209.0,-1375.0,404.0,-587.0,-1018.0
-802.0,260.0,1739.0,47.0,-1572.0,699.0,-1120.0,-889.0
-1750.0,254.0,455.0,93.0,-269.0,607.0,-1397.0,-824.0
-2693.0,316.0,60.0,182.0,994.0,758.0,-908.0,-883.0
-4000.0,404.0,17.0,115.0,1970.0,1148.0,246.0,-514.0
-4000.0,460.0,173.0,23.0,2776.0,1083.0,223.0,-489.0
-4000.0,441.0,238.0,-17.0,3281.0,822.0,43.0,-685.0
-4000.0,223.0,-208.0,-122.0,3592.0,669.0,-94.0,-915.0
-4000.0,86.0,-557.0,-166.0,2290.0,524.0,-273.0,-740.0
-1984.0,91.0,-641.0,-119.0,1639.0,449.0,-190.0,-809.0
3100.0,69.0,-804.0,-104.0,1148.0,394.0,-258.0,-875.0
-4000.0,5.0,-963.0,-95.0,245.0,348.0,-120.0,-801.0
-4000.0,-72.0,-841.0,-36.0,-790.0,433.0,-37.0,-883.0
-4000.0,-46.0,-716.0,172.0,-1649.0,249.0,21.0,-779.0
-1267.0,-129.0,-898.0,386.0,-1439.0,303.0,-11.0,-798.0
4000.0,-46.0,-925.0,303.0,-1228.0,752.0,4.0,-601.0
4000.0,256.0,-746.0,169.0,-116.0,1204.0,-83.0,-138.0
4000.0,371.0,-645.0,75.0,2254.0,1344.0,-43.0,474.0
4000.0,254.0,-637.0,-21.0,4000.0,1325.0,177.0,890.0
3562.0,13.0,-688.0,-71.0,3916.0,1189.0,311.0,1382.0
-4000.0,91.0,-757.0,95.0,2889.0,532.0,416.0,2742.0
-4000.0,222.0,-711.0,248.0,2057.0,111.0,394.0,3291.0
-4000.0,278.0,-776.0,-133.0,1097.0,-224.0,409.0,3422.0
4000.0,294.0,-1453.0,-487.0,104.0,-672.0,384.0,4000.0
4000.0,300.0,-1980.0,-639.0,-1719.0,-838.0,402.0,4000.0
4000.0,400.0,-2964.0,-849.0,-2870.0,-1097.0,432.0,4000.0
4000.0,410.0,-3697.0,-784.0,-2409.0,-1290.0,571.0,4000.0
4000.0,449.0,-373.0,-690.0,-1584.0,-1422.0,669.0,4000.0
447.0,386.0,2054.0,-422.0,-1606.0,-1290.0,610.0,3976.0
-4000.0,300.0,2094.0,-143.0,-2159.0,-1053.0,660.0,3617.0
-4000.0,502.0,2746.0,50.0,-2316.0,-810.0,661.0,3784.0
-4000.0,941.0,2989.0,252.0,-1174.0,-293.0,637.0,3784.0
-4000.0,1051.0,3137.0,368.0,224.0,194.0,604.0,3263.0
-4000.0,788.0,2278.0,628.0,80.0,876.0,551.0,2948.0
-4000.0,549.0,1824.0,844.0,618.0,1124.0,506.0,3014.0
-4000.0,221.0,1371.0,793.0,2100.0,681.0,432.0,2283.0
-4000.0,-87.0,751.0,556.0,2443.0,404.0,409.0,1663.0
-3140.0,-304.0,142.0,458.0,1604.0,172.0,439.0,1307.0
-2505.0,-391.0,-419.0,238.0,477.0,-375.0,374.0,474.0
-2142.0,-495.0,-532.0,-222.0,-559.0,-859.0,276.0,53.0
-1392.0,-531.0,-503.0,-319.0,-1174.0,-1070.0,213.0,-118.0
-1495.0,-539.0,-612.0,220.0,-1105.0,-1317.0,116.0,-750.0
-2023.0,-570.0,-1013.0,1418.0,-460.0,-1372.0,9.0,-928.0
-2708.0,-556.0,-637.0,1563.0,-394.0,-1446.0,-137.0,-525.0
-1227.0,-568.0,-557.0,-336.0,-863.0,-1526.0,-279.0,-378.0
-1006.0,-537.0,-507.0,-1840.0,-1507.0,-1585.0,-323.0,-859.0
-1616.0,-570.0,-450.0,-2521.0,-2472.0,-1669.0,-332.0,-1374.0
-710.0,-562.0,-442.0,-2713.0,-2806.0,-1487.0,-399.0,-1390.0
1433.0,-505.0,-313.0,-1858.0,-3197.0,-1317.0,-375.0,-1271.0
3624.0,-422.0,-389.0,-1235.0,-3262.0,-1135.0,-349.0,-1318.0
4000.0,-364.0,-318.0,-604.0,-3172.0,-964.0,-436.0,-1579.0
4000.0,-310.0,-245.0,59.0,-3107.0,-790.0,-477.0,-1644.0
2809.0,-196.0,-39.0,522.0,-2925.0,-722.0,-401.0,-1514.0
621.0,-100.0,-44.0,1059.0,-2912.0,-703.0,-233.0,-1265.0
-1430.0,34.0,-140.0,1076.0,-2611.0,-517.0,-84.0,-883.0
-1096.0,36.0,-255.0,891.0,-2421.0,-293.0,-48.0,-753.0
166.0,-30.0,-364.0,784.0,-2159.0,-110.0,-211.0,-362.0
1293.0,-53.0,-420.0,773.0,-1782.0,-62.0,-379.0,312.0
2483.0,4.0,-454.0,903.0,-1463.0,-102.0,-530.0,680.0
1950.0,64.0,-421.0,968.0,-1442.0,48.0,-587.0,795.0
1307.0,41.0,-385.0,767.0,-1359.0,463.0,-450.0,399.0
241.0,58.0,-304.0,438.0,-1142.0,853.0,-246.0,-148.0
-374.0,12.0,-208.0,347.0,-993.0,1092.0,-43.0,-1061.0
-604.0,-30.0,-40.0,229.0,-773.0,1409.0,-38.0,-1540.0
-676.0,-31.0,178.0,150.0,-644.0,1710.0,-83.0,-1456.0
-582.0,-37.0,432.0,204.0,-681.0,1733.0,-33.0,-1514.0
-700.0,7.0,720.0,54.0,-751.0,1644.0,111.0,-1339.0
-516.0,-8.0,793.0,-159.0,-705.0,1473.0,364.0,-1135.0
-388.0,-73.0,606.0,-255.0,-667.0,1313.0,667.0,-971.0
-81.0,-85.0,508.0,-245.0,-354.0,1287.0,903.0,-679.0
-70.0,-80.0,328.0,-381.0,87.0,1292.0,889.0,-295.0
-16.0,-80.0,246.0,-513.0,672.0,1098.0,656.0,-553.0
11.0,-49.0,309.0,-659.0,1124.0,888.0,554.0,-1213.0
-2.0,-13.0,170.0,-724.0,932.0,766.0,577.0,-1257.0
49.0,-35.0,95.0,-621.0,310.0,627.0,667.0,-1057.0
28.0,-35.0,37.0,-544.0,-360.0,469.0,681.0,-1078.0
82.0,-36.0,-16.0,-393.0,-638.0,311.0,506.0,-1213.0
86.0,-38.0,-56.0,-194.0,-556.0,283.0,266.0,-1339.0
138.0,-28.0,-123.0,-34.0,15.0,409.0,2.0,-1078.0
137.0,-30.0,-132.0,-182.0,491.0,610.0,-61.0,-659.0
169.0,-47.0,-161.0,-143.0,737.0,746.0,10.0,-391.0
112.0,-60.0,-204.0,25.0,766.0,563.0,90.0,276.0
103.0,-53.0,-206.0,0.0,866.0,321.0,185.0,947.0
92.0,-46.0,-158.0,144.0,998.0,311.0,83.0,499.0
86.0,-37.0,-128.0,-16.0,998.0,208.0,-155.0,-321.0
102.0,-29.0,-169.0,-155.0,1482.0,20.0,-187.0,-1255.0
86.0,-27.0,-163.0,12.0,1865.0,-22.0,-91.0,-2114.0
99.0,-24.0,-106.0,49.0,2160.0,-189.0,-187.0,-2360.0
69.0,-62.0,-75.0,-81.0,2317.0,-371.0,-469.0,-2412.0
64.0,-40.0,-304.0,-159.0,2296.0,-350.0,-908.0,-2828.0
18.0,3.0,-906.0,-35.0,2124.0,-338.0,-1438.0,-3809.0
15.0,17.0,-869.0,-53.0,1272.0,-358.0,-1851.0,-3414.0
27.0,40.0,-30.0,7.0,-156.0,-247.0,-1991.0,-1644.0
60.0,38.0,17.0,113.0,-717.0,123.0,-1665.0,-472.0
65.0,42.0,-470.0,85.0,456.0,528.0,-973.0,77.0
16.0,23.0,-149.0,87.0,2048.0,673.0,-652.0,497.0
20.0,-20.0,634.0,130.0,3606.0,441.0,-664.0,719.0
67.0,-25.0,872.0,229.0,4000.0,301.0,-290.0,851.0
80.0,-40.0,964.0,227.0,4000.0,420.0,158.0,999.0
78.0,-46.0,408.0,168.0,4000.0,497.0,543.0,1077.0
76.0,-55.0,15.0,90.0,4000.0,528.0,925.0,1198.0
50.0,-75.0,621.0,85.0,4000.0,576.0,1214.0,1118.0
38.0,-105.0,546.0,67.0,4000.0,902.0,999.0,808.0
-61.0,-179.0,288.0,-60.0,4000.0,870.0,693.0,606.0
-118.0,-155.0,65.0,-92.0,4000.0,325.0,720.0,449.0
-128.0,-44.0,-232.0,-100.0,4000.0,-55.0,1027.0,49.0
-381.0,14.0,-502.0,-39.0,2889.0,-289.0,1345.0,-254.0
-490.0,82.0,-571.0,37.0,1601.0,-548.0,1190.0,-449.0
-35.0,99.0,-440.0,76.0,448.0,-750.0,942.0,-563.0
281.0,78.0,-505.0,47.0,-1817.0,-867.0,693.0,-427.0
334.0,85.0,-434.0,13.0,-3327.0,-977.0,759.0,-441.0
204.0,43.0,-495.0,113.0,-3001.0,-1005.0,1070.0,-521.0
-379.0,18.0,-442.0,142.0,-1446.0,-932.0,1060.0,-338.0
-185.0,52.0,10.0,113.0,-295.0,-743.0,726.0,130.0
382.0,64.0,152.0,34.0,-930.0,-607.0,613.0,682.0
387.0,30.0,-2.0,-69.0,-1384.0,-510.0,746.0,825.0
394.0,45.0,-161.0,-167.0,-1833.0,-414.0,593.0,817.0
202.0,23.0,-385.0,-211.0,-1528.0,-331.0,135.0,947.0
50.0,-9.0,-241.0,-85.0,-593.0,-202.0,-359.0,700.0
-80.0,31.0,-106.0,-82.0,-385.0,-92.0,-652.0,595.0
-174.0,9.0,-110.0,-71.0,-744.0,10.0,-772.0,921.0
-83.0,-15.0,-17.0,68.0,-1142.0,-33.0,-933.0,1053.0
-185.0,-7.0,33.0,68.0,-1390.0,-161.0,-1076.0,1272.0
-314.0,25.0,246.0,51.0,-1528.0,-269.0,-977.0,1130.0
-256.0,43.0,463.0,-78.0,-1333.0,-352.0,-1050.0,1319.0
-136.0,35.0,533.0,-243.0,-1963.0,-459.0,-1181.0,1663.0
-122.0,34.0,428.0,-214.0,-4000.0,-676.0,-1057.0,1462.0
-67.0,49.0,299.0,-214.0,-4000.0,-875.0,-1136.0,1403.0
-58.0,62.0,107.0,-283.0,-4000.0,-926.0,-1006.0,918.0
-86.0,52.0,-40.0,-328.0,-4000.0,-855.0,-859.0,788.0
-124.0,43.0,-42.0,-266.0,-4000.0,-810.0,-941.0,817.0
-98.0,37.0,54.0,-194.0,-3120.0,-685.0,-966.0,499.0
-74.0,47.0,76.0,-101.0,-2484.0,-657.0,-826.0,41.0
-55.0,49.0,-63.0,-87.0,-2986.0,-662.0,-672.0,-29.0
30.0,45.0,-133.0,-121.0,-3107.0,-686.0,-575.0,70.0
-12.0,18.0,-68.0,-78.0,-1882.0,-665.0,-442.0,-301.0
-5.0,37.0,-108.0,-151.0,-588.0,-449.0,-416.0,174.0
-77.0,12.0,-180.0,-168.0,-281.0,-267.0,-338.0,471.0
-106.0,19.0,-135.0,-91.0,-436.0,-102.0,-269.0,399.0
-83.0,74.0,-304.0,-107.0,-581.0,-266.0,-208.0,532.0
-13.0,75.0,-219.0,-37.0,-1105.0,-511.0,-161.0,361.0
-64.0,69.0,45.0,51.0,-1229.0,-600.0,-149.0,304.0
-251.0,31.0,7.0,-11.0,-724.0,-731.0,-133.0,193.0
-195.0,68.0,30.0,-2.0,-599.0,-620.0,-28.0,131.0
-74.0,30.0,57.0,2.0,-631.0,-476.0,53.0,62.0
86.0,17.0,195.0,-14.0,-549.0,-373.0,74.0,-67.0
209.0,31.0,328.0,20.0,-208.0,76.0,196.0,-154.0
408.0,-13.0,318.0,-51.0,-33.0,358.0,236.0,-235.0
563.0,-35.0,364.0,-51.0,-179.0,17.0,229.0,-305.0
553.0,-36.0,335.0,-69.0,-263.0,-74.0,259.0,-390.0
241.0,-26.0,278.0,-74.0,680.0,498.0,302.0,-390.0
-119.0,-23.0,244.0,-37.0,2160.0,664.0,338.0,-366.0
-354.0,-6.0,334.0,-68.0,2940.0,441.0,368.0,-362.0
-419.0,-12.0,337.0,-78.0,3020.0,725.0,346.0,-443.0
-104.0,34.0,175.0,-54.0,2378.0,896.0,294.0,-443.0
-78.0,38.0,64.0,-54.0,1857.0,589.0,311.0,-345.0
-125.0,10.0,99.0,-109.0,1734.0,669.0,339.0,-320.0
151.0,49.0,455.0,-136.0,1547.0,596.0,326.0,-282.0
489.0,74.0,396.0,-155.0,1287.0,248.0,297.0,-274.0
92.0,89.0,-242.0,-167.0,947.0,366.0,291.0,-223.0
-580.0,85.0,-586.0,-106.0,692.0,319.0,274.0,-59.0
-685.0,62.0,-604.0,20.0,430.0,953.0,238.0,16.0
-232.0,30.0,-318.0,51.0,272.0,1128.0,144.0,10.0
287.0,-7.0,-167.0,-16.0,454.0,576.0,90.0,83.0
325.0,-53.0,41.0,-34.0,627.0,1787.0,50.0,203.0
481.0,-52.0,466.0,-32.0,837.0,2425.0,-47.0,170.0
202.0,-44.0,598.0,-44.0,1182.0,2316.0,-134.0,21.0
31.0,-81.0,577.0,-38.0,1409.0,2450.0,-179.0,-180.0
257.0,-118.0,360.0,-10.0,1314.0,1929.0,-205.0,-392.0
-238.0,-129.0,101.0,6.0,724.0,1824.0,-181.0,-476.0
-367.0,-121.0,51.0,84.0,-47.0,1604.0,-29.0,-442.0
-161.0,-84.0,183.0,67.0,-588.0,1204.0,12.0,-723.0
7.0,14.0,514.0,47.0,-681.0,837.0,-25.0,-1234.0
97.0,29.0,663.0,91.0,-482.0,520.0,8.0,-1391.0
320.0,8.0,-34.0,95.0,-383.0,506.0,116.0,-1055.0
733.0,3.0,-776.0,132.0,-270.0,195.0,148.0,-312.0
595.0,23.0,-1024.0,174.0,36.0,-306.0,51.0,27.0
196.0,24.0,-963.0,207.0,235.0,-611.0,58.0,-5.0
139.0,28.0,-568.0,207.0,480.0,-807.0,152.0,695.0
383.0,76.0,296.0,174.0,737.0,-1112.0,248.0,1651.0
719.0,68.0,1574.0,150.0,1083.0,-1382.0,163.0,1638.0
1259.0,77.0,1704.0,207.0,1325.0,-1623.0,109.0,1118.0
1450.0,38.0,425.0,288.0,1266.0,-2014.0,129.0,881.0
1083.0,6.0,-615.0,244.0,929.0,-2313.0,120.0,601.0
1259.0,3.0,-817.0,170.0,67.0,-2547.0,209.0,-358.0
2093.0,-30.0,-401.0,195.0,-441.0,-2857.0,283.0,-618.0
1637.0,-24.0,7.0,171.0,-681.0,-2919.0,294.0,352.0
-165.0,-21.0,751.0,142.0,-834.0,-2504.0,284.0,393.0
-1351.0,-27.0,866.0,146.0,-612.0,-1664.0,301.0,-224.0
-2406.0,-12.0,337.0,193.0,-83.0,-575.0,272.0,-803.0
-2938.0,-3.0,1302.0,248.0,766.0,677.0,282.0,-1050.0
-2889.0,55.0,2159.0,232.0,1312.0,1929.0,276.0,-424.0
-2345.0,127.0,532.0,217.0,1333.0,2812.0,278.0,369.0
-1782.0,83.0,-1917.0,220.0,822.0,2809.0,284.0,513.0
-1495.0,37.0,-2704.0,204.0,235.0,2385.0,303.0,621.0
-1011.0,111.0,-2835.0,182.0,60.0,2555.0,268.0,1077.0
-739.0,160.0,-2188.0,154.0,-229.0,2840.0,259.0,1187.0
-136.0,199.0,-1613.0,61.0,-421.0,3296.0,294.0,1462.0
204.0,217.0,-1171.0,138.0,-686.0,3148.0,262.0,1502.0
603.0,197.0,-898.0,199.0,-1064.0,2645.0,271.0,1573.0
770.0,321.0,-672.0,113.0,-1056.0,1842.0,238.0,1586.0
651.0,512.0,162.0,35.0,-1012.0,463.0,211.0,1502.0
733.0,517.0,-55.0,80.0,-1120.0,-84.0,238.0,1403.0
666.0,148.0,-254.0,142.0,-1198.0,-546.0,262.0,1142.0
738.0,-156.0,372.0,105.0,-1188.0,-997.0,238.0,1053.0
654.0,-169.0,1639.0,142.0,-1169.0,-1487.0,191.0,745.0
633.0,-11.0,2356.0,152.0,-1123.0,-1664.0,152.0,550.0
553.0,15.0,1292.0,129.0,-942.0,-1424.0,49.0,369.0
477.0,-144.0,133.0,54.0,-773.0,-1070.0,5.0,157.0
433.0,-114.0,-641.0,-32.0,-812.0,-643.0,-35.0,-91.0
381.0,-172.0,-890.0,-100.0,-798.0,-550.0,-78.0,-345.0
382.0,-228.0,-505.0,-133.0,-818.0,-86.0,-88.0,-529.0
310.0,-305.0,-274.0,-137.0,-967.0,249.0,-83.0,-753.0
296.0,-393.0,-316.0,-95.0,-928.0,380.0,-61.0,-875.0
204.0,-334.0,-489.0,39.0,-751.0,510.0,8.0,-947.0
92.0,-273.0,-393.0,49.0,-751.0,532.0,12.0,-953.0
52.0,-165.0,-503.0,-51.0,-798.0,248.0,0.0,-883.0
36.0,-48.0,-774.0,-97.0,-840.0,-103.0,61.0,-692.0
32.0,18.0,-580.0,-67.0,-862.0,-440.0,75.0,-553.0
27.0,-11.0,51.0,-112.0,-818.0,-802.0,31.0,-395.0
-29.0,-16.0,318.0,-88.0,-812.0,-810.0,-8.0,-251.0
-71.0,-91.0,349.0,-68.0,-679.0,-1357.0,-10.0,-133.0
-122.0,-80.0,695.0,65.0,-380.0,-2105.0,-26.0,-46.0
-165.0,207.0,792.0,329.0,2.0,-2206.0,-43.0,24.0
-201.0,316.0,683.0,180.0,264.0,-2054.0,-30.0,67.0
-213.0,319.0,663.0,-107.0,455.0,-2418.0,-39.0,-33.0
-122.0,338.0,630.0,-193.0,920.0,-2712.0,-68.0,-113.0
-97.0,304.0,671.0,-271.0,1258.0,-2383.0,-36.0,-189.0
-128.0,269.0,689.0,-293.0,1336.0,-906.0,-26.0,-199.0
-150.0,134.0,585.0,-418.0,1474.0,945.0,-11.0,-144.0
-154.0,77.0,524.0,-487.0,1189.0,823.0,19.0,-29.0
-155.0,59.0,415.0,-65.0,859.0,339.0,-6.0,181.0
-188.0,-18.0,309.0,255.0,1053.0,-306.0,-29.0,369.0
-209.0,-42.0,248.0,197.0,1253.0,-810.0,-27.0,499.0
-150.0,-106.0,183.0,19.0,1227.0,-685.0,-9.0,601.0
306.0,-169.0,60.0,-146.0,961.0,-875.0,-19.0,564.0
758.0,-208.0,-21.0,-92.0,556.0,-729.0,-27.0,460.0
408.0,-176.0,-27.0,124.0,348.0,-206.0,-67.0,460.0
-5.0,-181.0,-61.0,276.0,362.0,445.0,-77.0,399.0
-241.0,-190.0,-102.0,252.0,469.0,944.0,-75.0,302.0
-547.0,-114.0,-192.0,56.0,515.0,1157.0,-88.0,239.0
-604.0,-84.0,-215.0,34.0,505.0,571.0,-80.0,128.0
-641.0,20.0,-183.0,120.0,432.0,-151.0,-80.0,34.0
-541.0,64.0,-185.0,61.0,419.0,610.0,-61.0,-46.0
-428.0,50.0,-210.0,22.0,683.0,538.0,-59.0,-131.0
-366.0,33.0,-245.0,-141.0,725.0,-579.0,-68.0,-209.0
-221.0,-26.0,-198.0,-231.0,758.0,-971.0,-67.0,-254.0
-132.0,-47.0,-141.0,-121.0,792.0,-796.0,-56.0,-339.0
23.0,-44.0,-86.0,-62.0,725.0,-53.0,-53.0,-427.0
32.0,0.0,-39.0,-166.0,635.0,-1387.0,-46.0,-492.0
41.0,-34.0,-87.0,-253.0,497.0,-3308.0,-19.0,-594.0
178.0,-50.0,-101.0,-198.0,549.0,-3256.0,49.0,-638.0
187.0,-21.0,-29.0,-34.0,364.0,-3039.0,135.0,-649.0
228.0,-26.0,-59.0,71.0,129.0,-1717.0,181.0,-649.0
408.0,-42.0,-109.0,-146.0,-157.0,622.0,367.0,-647.0
843.0,-53.0,-75.0,-225.0,-356.0,2438.0,407.0,-643.0
1130.0,-32.0,-56.0,-312.0,-389.0,3409.0,4.0,-584.0
1149.0,-58.0,-52.0,-485.0,-411.0,3101.0,29.0,-545.0
1246.0,-34.0,-60.0,-580.0,-577.0,1994.0,217.0,-543.0
827.0,-20.0,-61.0,-432.0,-921.0,1601.0,35.0,-482.0
306.0,-64.0,-68.0,-359.0,-918.0,1482.0,-161.0,-370.0
248.0,-54.0,-74.0,-826.0,-877.0,1340.0,-811.0,-315.0
122.0,-53.0,-57.0,-686.0,-967.0,804.0,-977.0,-278.0
-361.0,-22.0,-45.0,-488.0,-883.0,354.0,-308.0,-221.0
-960.0,2.0,-53.0,-401.0,-742.0,402.0,-27.0,-142.0
-1175.0,30.0,-47.0,-137.0,-659.0,132.0,-247.0,-39.0
-1560.0,57.0,-1.0,-129.0,-443.0,237.0,-273.0,6.0
-1868.0,50.0,20.0,199.0,-194.0,477.0,120.0,20.0
-1886.0,103.0,55.0,467.0,-107.0,429.0,276.0,83.0
-1682.0,176.0,40.0,915.0,-50.0,431.0,429.0,136.0
-1105.0,212.0,-2.0,1045.0,-30.0,415.0,613.0,200.0
-641.0,182.0,-52.0,858.0,23.0,375.0,481.0,255.0
-428.0,168.0,-103.0,929.0,56.0,311.0,445.0,261.0
-237.0,150.0,-120.0,1160.0,212.0,213.0,294.0,269.0
-66.0,46.0,-120.0,915.0,306.0,144.0,145.0,261.0
195.0,-5.0,-112.0,-119.0,205.0,83.0,143.0,269.0
440.0,21.0,-99.0,-371.0,-124.0,73.0,59.0,260.0
461.0,24.0,-41.0,-503.0,-450.0,41.0,13.0,225.0
627.0,-11.0,-53.0,-725.0,-195.0,-4.0,-94.0,169.0
668.0,-35.0,-86.0,-761.0,228.0,-18.0,-141.0,159.0
757.0,-69.0,-62.0,-808.0,393.0,-109.0,-16.0,176.0
854.0,-86.0,-64.0,-645.0,206.0,-156.0,14.0,144.0
692.0,-105.0,-11.0,-458.0,31.0,-169.0,-68.0,124.0
640.0,-87.0,16.0,-167.0,122.0,-186.0,-198.0,80.0
640.0,-52.0,-39.0,-195.0,293.0,-169.0,-363.0,49.0
777.0,-66.0,-59.0,-123.0,379.0,-129.0,-477.0,31.0
812.0,-39.0,-54.0,-158.0,400.0,-128.0,-475.0,5.0
450.0,-46.0,-77.0,-190.0,562.0,-137.0,-453.0,-14.0
89.0,-42.0,-103.0,-45.0,607.0,-134.0,-424.0,-47.0
-78.0,-56.0,-88.0,-1.0,308.0,-167.0,-213.0,-82.0
74.0,-108.0,-45.0,128.0,139.0,-177.0,-132.0,-78.0
308.0,-135.0,-24.0,77.0,505.0,-209.0,-198.0,-89.0
120.0,-106.0,-60.0,64.0,941.0,-204.0,-192.0,-111.0
-150.0,-26.0,-73.0,24.0,1328.0,-185.0,-123.0,-128.0
-386.0,-20.0,-48.0,-97.0,1604.0,-147.0,41.0,-192.0
-590.0,-32.0,-34.0,-366.0,1417.0,-86.0,202.0,-254.0
-641.0,-24.0,-12.0,-511.0,641.0,-98.0,404.0,-297.0
-559.0,-26.0,12.0,-393.0,-50.0,-145.0,449.0,-341.0
-321.0,-24.0,20.0,-352.0,-245.0,-161.0,457.0,-362.0
-196.0,-59.0,88.0,-184.0,-812.0,-195.0,254.0,-423.0
-192.0,-40.0,140.0,42.0,-1584.0,-237.0,-101.0,-435.0
-292.0,-52.0,83.0,164.0,-2029.0,-325.0,-262.0,-454.0
-223.0,-34.0,35.0,124.0,-2122.0,-423.0,-233.0,-492.0
60.0,21.0,33.0,116.0,-1817.0,-517.0,28.0,-496.0
296.0,69.0,3.0,142.0,-1056.0,-598.0,209.0,-484.0
342.0,93.0,-9.0,91.0,-295.0,-672.0,197.0,-427.0
228.0,64.0,43.0,73.0,-190.0,-696.0,29.0,-385.0
211.0,57.0,160.0,41.0,-68.0,-685.0,-148.0,-340.0
181.0,-5.0,219.0,31.0,102.0,-630.0,-233.0,-356.0
199.0,-66.0,179.0,-14.0,114.0,-452.0,-331.0,-380.0
135.0,-113.0,134.0,-31.0,509.0,-24.0,-147.0,-313.0
43.0,-142.0,111.0,34.0,938.0,571.0,238.0,-221.0
49.0,-137.0,77.0,56.0,1012.0,1075.0,213.0,-168.0
23.0,-133.0,54.0,44.0,367.0,1539.0,-117.0,-169.0
5.0,-111.0,37.0,22.0,-556.0,1917.0,-510.0,-227.0
-24.0,-103.0,-33.0,13.0,-653.0,2125.0,-1038.0,-240.0
-61.0,-85.0,-41.0,40.0,-641.0,2189.0,-1096.0,-219.0
-92.0,-99.0,-5.0,105.0,-621.0,2159.0,-448.0,-105.0
-112.0,-93.0,64.0,80.0,-795.0,2125.0,220.0,79.0
-116.0,-43.0,113.0,2.0,-797.0,2084.0,348.0,213.0
-97.0,-31.0,85.0,-49.0,-324.0,1982.0,170.0,200.0
-102.0,1.0,63.0,-26.0,-85.0,1842.0,149.0,163.0
-93.0,40.0,83.0,37.0,308.0,1644.0,166.0,252.0
-83.0,74.0,52.0,95.0,247.0,1352.0,242.0,324.0
-105.0,110.0,13.0,142.0,-240.0,1083.0,413.0,332.0
-88.0,105.0,30.0,141.0,-339.0,795.0,380.0,216.0
-122.0,77.0,18.0,67.0,-490.0,506.0,248.0,108.0
-141.0,86.0,-41.0,-48.0,-874.0,221.0,145.0,136.0
-132.0,85.0,-82.0,-131.0,-818.0,-54.0,8.0,151.0
-138.0,94.0,-44.0,-224.0,-164.0,-280.0,-6.0,213.0
-110.0,114.0,-32.0,-223.0,468.0,-474.0,58.0,239.0
-92.0,95.0,-56.0,-196.0,961.0,-620.0,4.0,236.0
-55.0,94.0,-129.0,-106.0,1397.0,-773.0,-195.0,237.0
-45.0,93.0,-188.0,37.0,902.0,-896.0,-424.0,255.0
-74.0,57.0,18.0,91.0,792.0,-940.0,-459.0,275.0
-39.0,66.0,244.0,140.0,817.0,-1005.0,-123.0,319.0
-1.0,69.0,246.0,280.0,22.0,-988.0,225.0,387.0
-53.0,34.0,121.0,458.0,-98.0,-917.0,319.0,397.0
-49.0,20.0,-23.0,394.0,-229.0,-816.0,356.0,409.0
-16.0,33.0,-139.0,124.0,-351.0,-661.0,433.0,434.0
-39.0,50.0,-248.0,-25.0,-107.0,-541.0,658.0,515.0
-39.0,50.0,-222.0,-107.0,570.0,-489.0,948.0,485.0
-60.0,76.0,-209.0,-133.0,1417.0,-474.0,946.0,491.0
-67.0,83.0,-139.0,-141.0,1340.0,-515.0,805.0,564.0
-55.0,93.0,-8.0,-178.0,1509.0,-640.0,468.0,591.0
-42.0,108.0,-77.0,-123.0,1340.0,-771.0,-111.0,634.0
-55.0,108.0,-154.0,-101.0,815.0,-859.0,-305.0,725.0
-93.0,105.0,-135.0,-24.0,171.0,-928.0,-433.0,961.0
-87.0,103.0,-119.0,9.0,-280.0,-940.0,-152.0,1207.0
-122.0,85.0,-99.0,-60.0,-242.0,-917.0,759.0,1403.0
-365.0,99.0,-84.0,-37.0,-343.0,-802.0,1735.0,1573.0
-777.0,109.0,-66.0,-10.0,-72.0,-661.0,1996.0,1698.0
-641.0,112.0,16.0,43.0,375.0,-565.0,881.0,1598.0
-550.0,114.0,63.0,87.0,361.0,-489.0,-65.0,1411.0
-372.0,77.0,69.0,107.0,38.0,-459.0,-320.0,1399.0
627.0,77.0,63.0,120.0,-128.0,-371.0,433.0,1346.0
772.0,29.0,-14.0,109.0,-383.0,-261.0,1379.0,1306.0
825.0,5.0,-51.0,118.0,-376.0,-189.0,1214.0,1020.0
719.0,1.0,-25.0,81.0,83.0,-144.0,1418.0,745.0
315.0,-4.0,-40.0,65.0,259.0,-79.0,1469.0,556.0
247.0,-13.0,-32.0,47.0,-16.0,56.0,1288.0,213.0
-10.0,-37.0,1.0,45.0,12.0,95.0,1640.0,-74.0
44.0,-35.0,-29.0,124.0,267.0,115.0,1854.0,-454.0
-22.0,-12.0,-9.0,152.0,-56.0,47.0,1280.0,-889.0
-51.0,30.0,34.0,185.0,-576.0,-41.0,311.0,-1381.0
-41.0,30.0,63.0,268.0,-1044.0,-28.0,-436.0,-1925.0
-70.0,50.0,48.0,410.0,-1259.0,-65.0,-731.0,-2295.0
-102.0,105.0,-22.0,352.0,-1333.0,30.0,-595.0,-2556.0
-185.0,79.0,-33.0,-55.0,-763.0,213.0,-576.0,-2617.0
-196.0,28.0,-69.0,-183.0,-203.0,324.0,-188.0,-2735.0
-218.0,-57.0,-112.0,-306.0,308.0,479.0,-351.0,-2927.0
-119.0,-93.0,-152.0,-448.0,1148.0,636.0,-664.0,-2928.0
-138.0,-121.0,-146.0,-391.0,627.0,706.0,-811.0,-3066.0
-307.0,-215.0,-135.0,-418.0,641.0,778.0,-585.0,-3138.0
-457.0,-310.0,-128.0,-306.0,1118.0,823.0,-424.0,-3327.0
-457.0,-255.0,-32.0,-216.0,1213.0,858.0,-1058.0,-3439.0
-461.0,-114.0,-50.0,-263.0,1417.0,817.0,-1271.0,-3513.0
-557.0,-47.0,-47.0,-312.0,1270.0,660.0,-1749.0,-3753.0
90.0,37.0,5.0,-250.0,1287.0,497.0,-1690.0,-3862.0
538.0,93.0,83.0,-198.0,1182.0,311.0,-1730.0,-3992.0
618.0,204.0,130.0,-123.0,1213.0,197.0,-1431.0,-3844.0
784.0,290.0,178.0,31.0,1136.0,274.0,-603.0,-3527.0
325.0,279.0,207.0,139.0,1006.0,414.0,-672.0,-3253.0
-15.0,225.0,163.0,170.0,875.0,520.0,-637.0,-2959.0
-56.0,176.0,246.0,115.0,597.0,586.0,-774.0,-2682.0
147.0,103.0,207.0,27.0,440.0,541.0,-977.0,-2377.0
215.0,-84.0,138.0,30.0,397.0,386.0,-897.0,-2230.0
243.0,-345.0,82.0,44.0,480.0,183.0,-941.0,-1925.0
187.0,-444.0,21.0,14.0,576.0,-6.0,-977.0,-1469.0
178.0,-295.0,62.0,172.0,627.0,-178.0,-1128.0,-953.0
186.0,-157.0,3.0,193.0,426.0,-273.0,-1527.0,-449.0
23.0,-134.0,-102.0,73.0,247.0,-271.0,-1397.0,261.0
43.0,-67.0,-219.0,96.0,-221.0,-261.0,-314.0,1207.0
-28.0,-1.0,-250.0,92.0,-1052.0,-260.0,939.0,2249.0
-71.0,59.0,-222.0,108.0,-2018.0,-287.0,1444.0,3144.0
-250.0,87.0,-230.0,27.0,-3302.0,-349.0,1345.0,3721.0
-348.0,25.0,-214.0,-152.0,-4000.0,-393.0,1019.0,4000.0
-227.0,-32.0,-232.0,-253.0,-4000.0,-514.0,608.0,4000.0
-123.0,-69.0,-172.0,-216.0,-3655.0,-597.0,142.0,4000.0
-108.0,-59.0,-47.0,-155.0,-3132.0,-660.0,-104.0,4000.0
-36.0,-24.0,40.0,-120.0,-2977.0,-810.0,-233.0,4000.0
6.0,63.0,41.0,12.0,-2921.0,-750.0,-363.0,4000.0
-143.0,77.0,93.0,138.0,-3148.0,-641.0,-161.0,4000.0
-865.0,74.0,98.0,183.0,-3456.0,-565.0,-59.0,4000.0
-2012.0,147.0,56.0,142.0,-3237.0,-377.0,78.0,4000.0
-620.0,160.0,48.0,72.0,-2859.0,-149.0,183.0,4000.0
1441.0,170.0,-31.0,-5.0,-2289.0,158.0,259.0,4000.0
1832.0,151.0,30.0,-34.0,-1768.0,457.0,359.0,4000.0
2052.0,121.0,217.0,-46.0,-1333.0,648.0,352.0,4000.0
1000.0,69.0,381.0,-67.0,-1374.0,675.0,576.0,4000.0
586.0,78.0,408.0,-23.0,-1534.0,576.0,681.0,4000.0
188.0,156.0,336.0,-69.0,-1235.0,463.0,543.0,4000.0
-215.0,179.0,175.0,-148.0,-551.0,368.0,349.0,4000.0
-120.0,172.0,134.0,-79.0,469.0,191.0,160.0,2507.0
-343.0,128.0,73.0,-78.0,1213.0,61.0,-39.0,935.0
-268.0,113.0,-94.0,-95.0,1488.0,136.0,-212.0,-670.0
-425.0,68.0,-132.0,-41.0,1266.0,28.0,-327.0,-2347.0
-258.0,-10.0,-163.0,-13.0,876.0,-91.0,-285.0,-3929.0
-302.0,-4.0,-212.0,-4.0,641.0,-224.0,-253.0,-4000.0
-354.0,16.0,-162.0,44.0,606.0,-428.0,-417.0,-4000.0
-339.0,16.0,-93.0,54.0,790.0,-463.0,-308.0,-4000.0
-309.0,16.0,-36.0,29.0,1163.0,-597.0,-511.0,-4000.0
-242.0,70.0,-39.0,37.0,1703.0,-459.0,-676.0,-4000.0
-274.0,38.0,-88.0,33.0,1907.0,-423.0,-620.0,-4000.0
-90.0,-68.0,-52.0,81.0,1901.0,-489.0,-723.0,-4000.0
-122.0,-101.0,-83.0,32.0,1786.0,-163.0,-587.0,-4000.0
-120.0,-179.0,-157.0,-41.0,1710.0,-267.0,-575.0,-4000.0
-44.0,-174.0,-175.0,-51.0,1855.0,-586.0,-135.0,-4000.0
-31.0,-214.0,-186.0,-55.0,2124.0,-591.0,642.0,-4000.0
-54.0,-334.0,-139.0,-8.0,2357.0,-696.0,1801.0,-4000.0
-51.0,-438.0,-152.0,24.0,2320.0,-729.0,3607.0,-4000.0
-29.0,-405.0,-132.0,87.0,2178.0,-526.0,4000.0,-4000.0
-20.0,-307.0,-85.0,113.0,2112.0,-33.0,4000.0,-4000.0
32.0,-318.0,-114.0,152.0,1930.0,738.0,3983.0,-4000.0
52.0,-199.0,-85.0,215.0,1759.0,1098.0,3528.0,-4000.0
48.0,-149.0,-87.0,193.0,1722.0,1258.0,3624.0,-4000.0
28.0,-87.0,-88.0,150.0,1734.0,1378.0,4000.0,-4000.0
35.0,3.0,-82.0,146.0,1733.0,1456.0,3917.0,-3007.0
27.0,12.0,-29.0,139.0,1592.0,1604.0,3530.0,-1677.0
34.0,99.0,35.0,130.0,1313.0,1573.0,2843.0,-305.0
25.0,128.0,62.0,130.0,1006.0,1482.0,1670.0,1242.0
16.0,124.0,101.0,90.0,748.0,1456.0,-161.0,2705.0
-11.0,109.0,134.0,61.0,393.0,1292.0,-1397.0,3831.0
-131.0,83.0,189.0,27.0,46.0,1003.0,-1377.0,4000.0
-388.0,73.0,175.0,18.0,-143.0,766.0,-1851.0,4000.0
-294.0,93.0,199.0,22.0,-222.0,811.0,-3185.0,4000.0
222.0,99.0,183.0,-80.0,-234.0,758.0,-4000.0,4000.0
