-450.0,-162.0,-90.0,35.0,4000.0,-982.0,2826.0,-2938.0
-879.0,-143.0,-54.0,9.0,4000.0,-1186.0,2826.0,-2280.0
-677.0,-118.0,26.0,4.0,4000.0,-1376.0,2777.0,-1735.0
-555.0,-107.0,-53.0,-17.0,4000.0,-1440.0,2811.0,-1175.0
-493.0,-115.0,-103.0,-11.0,4000.0,-1270.0,2956.0,-608.0
-153.0,-151.0,-225.0,-5.0,4000.0,-1047.0,2944.0,-665.0
33.0,-196.0,-137.0,-28.0,4000.0,-706.0,2814.0,-963.0
150.0,-214.0,46.0,-34.0,4000.0,-362.0,2956.0,-1013.0
192.0,-253.0,137.0,-22.0,4000.0,-77.0,3268.0,-1856.0
187.0,-278.0,65.0,-36.0,4000.0,89.0,3267.0,-3244.0
169.0,-281.0,67.0,-21.0,4000.0,283.0,3400.0,-4000.0
240.0,-224.0,89.0,-31.0,4000.0,406.0,3477.0,-4000.0
222.0,-217.0,-15.0,-42.0,4000.0,315.0,3477.0,-3480.0
86.0,-259.0,-20.0,-67.0,4000.0,127.0,3477.0,-1829.0
-82.0,-236.0,-44.0,-65.0,4000.0,50.0,3086.0,249.0
-232.0,-224.0,-112.0,-54.0,4000.0,7.0,2579.0,2550.0
-131.0,-261.0,-120.0,-25.0,4000.0,-46.0,2049.0,3910.0
371.0,-215.0,-128.0,-26.0,4000.0,-125.0,1475.0,4000.0
1110.0,-152.0,-151.0,-32.0,4000.0,-232.0,693.0,4000.0
1051.0,-129.0,-107.0,38.0,4000.0,-267.0,-27.0,4000.0
-82.0,-51.0,-34.0,83.0,3916.0,-258.0,-394.0,4000.0
-706.0,-38.0,234.0,106.0,3037.0,-139.0,-485.0,3651.0
870.0,-31.0,280.0,112.0,2243.0,-27.0,-450.0,2742.0
1659.0,-11.0,-265.0,126.0,1207.0,25.0,-646.0,1468.0
900.0,4.0,-610.0,85.0,-217.0,118.0,-685.0,-72.0
517.0,-8.0,-613.0,71.0,-1202.0,246.0,-424.0,-833.0
-301.0,-14.0,-512.0,29.0,-2140.0,456.0,-255.0,-1365.0
-476.0,26.0,-222.0,-87.0,-3274.0,608.0,-181.0,-1950.0
-440.0,5.0,164.0,-100.0,-4000.0,766.0,-318.0,-1998.0
-941.0,19.0,598.0,-101.0,-4000.0,967.0,-769.0,-2230.0
-1750.0,28.0,996.0,-86.0,-4000.0,1188.0,-1317.0,-2165.0
-1782.0,12.0,1387.0,-42.0,-4000.0,1340.0,-1804.0,-2324.0
-1260.0,33.0,1835.0,-124.0,-4000.0,1443.0,-2211.0,-2741.0
-1231.0,48.0,996.0,-226.0,-4000.0,1474.0,-2577.0,-3060.0
-654.0,105.0,-350.0,-230.0,-4000.0,1333.0,-2548.0,-3581.0
833.0,217.0,-536.0,-141.0,-4000.0,1214.0,-2663.0,-4000.0
1420.0,238.0,-696.0,-103.0,-4000.0,1183.0,-2728.0,-4000.0
1246.0,182.0,-548.0,-122.0,-4000.0,1140.0,-2418.0,-4000.0
841.0,135.0,-481.0,-31.0,-4000.0,1313.0,-2404.0,-4000.0
361.0,99.0,-572.0,15.0,-4000.0,1482.0,-1822.0,-4000.0
236.0,78.0,-551.0,-4.0,-4000.0,1710.0,-1462.0,-4000.0
65.0,91.0,-692.0,-31.0,-4000.0,1852.0,-1588.0,-3695.0
-35.0,57.0,-470.0,-5.0,-4000.0,1666.0,-1625.0,-2375.0
-104.0,60.0,-568.0,-2.0,-4000.0,1189.0,-2028.0,-1326.0
603.0,81.0,-768.0,47.0,-1879.0,249.0,-1804.0,-724.0
1372.0,64.0,-519.0,83.0,-934.0,-262.0,-1487.0,32.0
1018.0,95.0,5.0,90.0,-1031.0,13.0,-1258.0,564.0
399.0,87.0,198.0,138.0,-812.0,194.0,-652.0,1281.0
-260.0,41.0,236.0,105.0,-751.0,888.0,-941.0,1924.0
-637.0,26.0,218.0,67.0,-59.0,1269.0,-2269.0,2445.0
-584.0,7.0,10.0,18.0,-69.0,1157.0,-3191.0,2770.0
-741.0,-4.0,51.0,-12.0,440.0,1182.0,-3472.0,3202.0
-844.0,-14.0,113.0,-26.0,947.0,722.0,-3700.0,3651.0
-1038.0,-40.0,162.0,-20.0,953.0,681.0,-4000.0,3727.0
-669.0,-54.0,189.0,-37.0,686.0,506.0,-3574.0,3535.0
-253.0,-15.0,337.0,-4.0,-846.0,321.0,-1513.0,3340.0
-132.0,114.0,546.0,28.0,-1207.0,175.0,-388.0,3096.0
7.0,173.0,760.0,-30.0,-742.0,-216.0,-416.0,2754.0
-227.0,116.0,988.0,-56.0,-40.0,-731.0,-907.0,2572.0
-9.0,75.0,1184.0,-65.0,857.0,-1200.0,-1254.0,2314.0
228.0,59.0,708.0,-9.0,758.0,-1050.0,-791.0,2042.0
104.0,4.0,-192.0,-10.0,171.0,-1062.0,-729.0,1639.0
-70.0,-34.0,-776.0,-25.0,-295.0,-1135.0,-741.0,1281.0
-138.0,-36.0,-1061.0,-36.0,-383.0,-856.0,-859.0,1130.0
-36.0,-65.0,-841.0,-43.0,-254.0,-258.0,-449.0,997.0
165.0,-117.0,-507.0,-14.0,-421.0,-371.0,286.0,882.0
253.0,-128.0,150.0,-29.0,-730.0,-973.0,1149.0,816.0
171.0,-100.0,858.0,42.0,-335.0,-1127.0,1467.0,751.0
56.0,-51.0,1322.0,59.0,-70.0,-1200.0,1098.0,621.0
40.0,-28.0,606.0,10.0,224.0,-875.0,1457.0,597.0
60.0,1.0,-519.0,34.0,603.0,-767.0,2244.0,662.0
12.0,40.0,-798.0,42.0,233.0,-745.0,3205.0,556.0
-24.0,43.0,-711.0,16.0,-245.0,-678.0,3411.0,303.0
-104.0,31.0,-348.0,-18.0,-704.0,-1042.0,2712.0,145.0
-119.0,16.0,-383.0,-35.0,-443.0,-1248.0,1788.0,119.0
-142.0,24.0,-631.0,-26.0,170.0,-1396.0,1645.0,71.0
-222.0,12.0,-741.0,-29.0,758.0,-1550.0,1721.0,2.0
-242.0,20.0,-611.0,-26.0,1128.0,-1192.0,1324.0,-111.0
9.0,63.0,-572.0,-29.0,1198.0,-856.0,903.0,-353.0
313.0,87.0,-674.0,12.0,1509.0,-541.0,607.0,-914.0
408.0,56.0,-757.0,52.0,1656.0,394.0,404.0,-1788.0
583.0,-4.0,-393.0,81.0,1796.0,1009.0,-64.0,-2543.0
834.0,-21.0,70.0,93.0,2060.0,1033.0,-459.0,-2519.0
725.0,-19.0,158.0,49.0,2308.0,608.0,-276.0,-1709.0
843.0,-44.0,410.0,-1.0,2516.0,200.0,280.0,-521.0
1558.0,-68.0,455.0,-28.0,2889.0,51.0,374.0,741.0
1999.0,-53.0,421.0,-17.0,3074.0,-245.0,303.0,1698.0
1950.0,-37.0,401.0,-25.0,3085.0,-633.0,67.0,2118.0
557.0,-53.0,372.0,-29.0,3281.0,-940.0,-8.0,2445.0
-1235.0,-11.0,393.0,-63.0,3281.0,-852.0,557.0,3226.0
-1016.0,29.0,385.0,-55.0,3037.0,-741.0,919.0,3593.0
-323.0,16.0,364.0,-16.0,3020.0,-586.0,1019.0,2510.0
436.0,30.0,280.0,-38.0,3127.0,-875.0,759.0,1263.0
56.0,54.0,272.0,-50.0,3281.0,-1308.0,407.0,235.0
-1633.0,80.0,231.0,-56.0,3232.0,-1357.0,548.0,-10.0
-2486.0,145.0,141.0,-13.0,3269.0,-1461.0,693.0,1650.0
-1950.0,146.0,33.0,10.0,3744.0,-1623.0,838.0,3275.0
2793.0,40.0,-21.0,-1.0,3399.0,-1633.0,1158.0,4000.0
4000.0,48.0,1.0,40.0,2386.0,-973.0,1129.0,4000.0
-450.0,-19.0,7.0,45.0,2032.0,-685.0,514.0,4000.0
-4000.0,-89.0,-1.0,42.0,1865.0,-845.0,352.0,4000.0
-4000.0,80.0,112.0,35.0,831.0,-173.0,816.0,3788.0
-3876.0,194.0,716.0,23.0,528.0,1340.0,681.0,2689.0
-710.0,168.0,1757.0,10.0,1137.0,1340.0,286.0,2025.0
-934.0,125.0,2081.0,11.0,1352.0,571.0,134.0,1568.0
-1025.0,160.0,968.0,16.0,1462.0,563.0,-62.0,1281.0
-2684.0,63.0,-502.0,11.0,781.0,651.0,-154.0,739.0
-4000.0,-58.0,-1143.0,4.0,314.0,1390.0,-668.0,28.0
-2389.0,-94.0,-937.0,4.0,-16.0,2224.0,-839.0,-778.0
-580.0,-80.0,-687.0,45.0,-486.0,1854.0,-517.0,-1213.0
1038.0,7.0,-631.0,2.0,-460.0,114.0,-826.0,-1632.0
1319.0,18.0,-429.0,24.0,-631.0,-702.0,-1454.0,-1984.0
1413.0,46.0,230.0,54.0,-448.0,-1127.0,-1104.0,-2147.0
1365.0,22.0,1224.0,-59.0,-576.0,-1396.0,-737.0,-2179.0
1605.0,-21.0,1704.0,-74.0,-1508.0,-845.0,-2015.0,-2024.0
1897.0,-68.0,1119.0,-37.0,-1885.0,41.0,-1978.0,-1921.0
1737.0,-111.0,-61.0,-24.0,-1137.0,504.0,-1291.0,-1925.0
1594.0,-141.0,-1106.0,-79.0,-598.0,80.0,-882.0,-2088.0
1358.0,-150.0,-1655.0,-126.0,-1573.0,532.0,-313.0,-2296.0
1297.0,-142.0,-1700.0,-169.0,-2159.0,1734.0,-751.0,-2513.0
1231.0,-181.0,-1288.0,-218.0,-2664.0,2710.0,-1193.0,-2376.0
1116.0,-118.0,-519.0,-233.0,-3368.0,1929.0,-1507.0,-2244.0
1095.0,-89.0,124.0,-206.0,-3018.0,651.0,-1514.0,-2050.0
1036.0,-85.0,106.0,-54.0,-2277.0,494.0,-2.0,-1607.0
843.0,-79.0,-422.0,-21.0,-1795.0,706.0,2492.0,-1508.0
553.0,-114.0,-180.0,-99.0,-2645.0,48.0,3559.0,-1755.0
275.0,-104.0,-376.0,-195.0,-3079.0,-383.0,2814.0,-2385.0
408.0,-28.0,-1398.0,-233.0,-2977.0,380.0,1280.0,-2848.0
686.0,73.0,-1395.0,-185.0,-3107.0,159.0,497.0,-2578.0
222.0,74.0,-1078.0,-112.0,-3185.0,-158.0,-420.0,-2347.0
-404.0,41.0,-906.0,-87.0,-3054.0,113.0,-1249.0,-2488.0
-388.0,34.0,-892.0,-81.0,-2484.0,734.0,-51.0,-2460.0
147.0,33.0,-716.0,-57.0,-2611.0,1279.0,498.0,-2295.0
854.0,-27.0,-205.0,-48.0,-3148.0,1279.0,481.0,-2051.0
705.0,-65.0,212.0,-5.0,-3844.0,1331.0,2631.0,-1756.0
28.0,-44.0,480.0,-48.0,-4000.0,803.0,3885.0,-1392.0
-49.0,-12.0,246.0,-59.0,-3575.0,-113.0,2942.0,-1240.0
300.0,86.0,374.0,30.0,-2452.0,-911.0,3151.0,-1196.0
1108.0,99.0,785.0,88.0,-1320.0,-1598.0,3021.0,-931.0
1498.0,31.0,683.0,67.0,-1589.0,-1975.0,211.0,-683.0
668.0,-25.0,507.0,40.0,-2368.0,-1330.0,-3445.0,-472.0
371.0,-34.0,432.0,54.0,-2870.0,-238.0,-4000.0,-234.0
-21.0,-142.0,517.0,7.0,-3018.0,654.0,-4000.0,-47.0
-388.0,-220.0,638.0,1.0,-3018.0,1387.0,-4000.0,77.0
-351.0,-179.0,498.0,0.0,-2870.0,1182.0,-4000.0,54.0
-901.0,-174.0,148.0,33.0,-2513.0,941.0,-2650.0,-15.0
-850.0,-118.0,102.0,51.0,-2651.0,296.0,655.0,7.0
-1430.0,-58.0,317.0,55.0,-2794.0,-371.0,2125.0,-78.0
-1915.0,45.0,585.0,37.0,-2482.0,-289.0,2631.0,-48.0
-915.0,103.0,866.0,13.0,-2318.0,-685.0,1866.0,329.0
-757.0,133.0,598.0,45.0,-2444.0,-1233.0,551.0,811.0
-958.0,135.0,75.0,15.0,-2715.0,-1396.0,-1462.0,1142.0
-309.0,105.0,148.0,25.0,-2935.0,-481.0,-2237.0,1446.0
-443.0,95.0,376.0,-12.0,-2924.0,498.0,-741.0,1892.0
-286.0,34.0,728.0,-36.0,-2692.0,384.0,416.0,1975.0
2325.0,80.0,1835.0,-51.0,-2029.0,-35.0,374.0,1769.0
4000.0,24.0,3380.0,-14.0,-1671.0,-92.0,474.0,1195.0
4000.0,24.0,3629.0,132.0,-1879.0,303.0,707.0,564.0
2650.0,34.0,1423.0,145.0,-2122.0,149.0,652.0,556.0
204.0,1.0,-263.0,29.0,-2506.0,276.0,1248.0,399.0
-1868.0,57.0,-1410.0,-130.0,-2611.0,315.0,1190.0,344.0
334.0,16.0,-2835.0,-171.0,-2859.0,425.0,1274.0,719.0
2728.0,129.0,-2639.0,-154.0,-3368.0,684.0,1315.0,816.0
-613.0,193.0,-2300.0,-128.0,-3563.0,746.0,946.0,881.0
-2810.0,182.0,-1849.0,-9.0,-3315.0,953.0,805.0,955.0
-1430.0,197.0,-1028.0,154.0,-2843.0,929.0,597.0,851.0
-3229.0,84.0,-876.0,163.0,-2385.0,1018.0,478.0,349.0
-4000.0,-42.0,-1407.0,54.0,-2247.0,967.0,169.0,-228.0
-4000.0,-35.0,-1153.0,217.0,-2316.0,1026.0,109.0,-798.0
-4000.0,64.0,-84.0,282.0,-2093.0,1018.0,-84.0,-1315.0
-4000.0,12.0,-21.0,139.0,-1619.0,991.0,-192.0,-1514.0
-4000.0,-77.0,25.0,99.0,-1052.0,1018.0,-363.0,-1430.0
-2114.0,4.0,564.0,113.0,-616.0,994.0,-424.0,-1594.0
-327.0,69.0,624.0,39.0,-200.0,1063.0,-483.0,-1469.0
64.0,81.0,325.0,27.0,364.0,1003.0,-644.0,-940.0
265.0,71.0,81.0,38.0,887.0,918.0,-723.0,-1061.0
863.0,63.0,-169.0,-5.0,1352.0,831.0,-861.0,-1114.0
1612.0,69.0,-192.0,0.0,1734.0,822.0,-796.0,-1213.0
2663.0,1.0,-194.0,-10.0,2889.0,693.0,-923.0,-1709.0
3200.0,-23.0,-124.0,10.0,4000.0,480.0,-811.0,-1921.0
2679.0,-8.0,-17.0,-39.0,4000.0,315.0,-644.0,-1904.0
2585.0,28.0,88.0,-86.0,1083.0,172.0,-482.0,-1841.0
2092.0,23.0,234.0,-191.0,2485.0,48.0,-127.0,-948.0
1962.0,7.0,183.0,-289.0,4000.0,45.0,-28.0,536.0
2353.0,41.0,89.0,-232.0,4000.0,83.0,54.0,1085.0
2809.0,101.0,40.0,-154.0,4000.0,75.0,290.0,396.0
2614.0,182.0,-17.0,-75.0,4000.0,124.0,433.0,-19.0
1767.0,167.0,-187.0,-44.0,4000.0,196.0,498.0,105.0
1485.0,49.0,-252.0,-30.0,4000.0,335.0,439.0,-492.0
1677.0,-34.0,23.0,-20.0,4000.0,307.0,486.0,-605.0
1767.0,-131.0,1163.0,61.0,4000.0,231.0,661.0,-1018.0
1384.0,-248.0,2548.0,118.0,4000.0,206.0,767.0,-791.0
1189.0,-340.0,2159.0,54.0,4000.0,180.0,1158.0,961.0
408.0,-282.0,2290.0,20.0,4000.0,175.0,1540.0,1134.0
-302.0,-169.0,4000.0,69.0,4000.0,-71.0,1274.0,462.0
-39.0,-85.0,4000.0,129.0,4000.0,-459.0,1293.0,751.0
1085.0,58.0,4000.0,109.0,4000.0,-743.0,1518.0,890.0
1246.0,201.0,309.0,-16.0,4000.0,-855.0,1084.0,-145.0
-180.0,261.0,-4000.0,-121.0,4000.0,-993.0,1158.0,261.0
-367.0,126.0,-4000.0,-149.0,4000.0,-982.0,1280.0,947.0
1441.0,-70.0,-4000.0,-140.0,4000.0,-1070.0,1098.0,726.0
2157.0,-162.0,-4000.0,-71.0,4000.0,-816.0,1118.0,1020.0
-1075.0,-230.0,-4000.0,12.0,4000.0,-510.0,999.0,927.0
-3734.0,-429.0,-2346.0,48.0,4000.0,-665.0,603.0,1053.0
-3866.0,-562.0,-1231.0,155.0,4000.0,-541.0,529.0,1020.0
-3294.0,-497.0,-976.0,248.0,4000.0,-696.0,580.0,751.0
-2206.0,-375.0,-519.0,171.0,2943.0,-773.0,548.0,548.0
-562.0,-352.0,-1134.0,168.0,1787.0,-838.0,486.0,182.0
509.0,-179.0,-606.0,169.0,440.0,-923.0,301.0,745.0
27.0,71.0,160.0,131.0,-924.0,-856.0,130.0,1142.0
-574.0,115.0,716.0,123.0,-2186.0,-924.0,27.0,1012.0
-453.0,209.0,828.0,65.0,-3213.0,-920.0,109.0,1216.0
122.0,162.0,523.0,20.0,-3925.0,-920.0,157.0,1346.0
110.0,117.0,309.0,3.0,-4000.0,-657.0,158.0,1392.0
398.0,120.0,324.0,-15.0,-4000.0,-511.0,73.0,1403.0
315.0,77.0,295.0,-86.0,-4000.0,-267.0,-50.0,1818.0
234.0,156.0,433.0,-130.0,-4000.0,-141.0,-149.0,2119.0
929.0,147.0,606.0,-143.0,-4000.0,-128.0,-214.0,2118.0
2518.0,124.0,606.0,-224.0,-4000.0,199.0,-252.0,1975.0
4000.0,152.0,850.0,-208.0,-4000.0,-279.0,-250.0,1663.0
3624.0,143.0,1153.0,-94.0,-4000.0,-859.0,-332.0,1924.0
1959.0,114.0,728.0,-34.0,-4000.0,-1038.0,-418.0,3600.0
342.0,27.0,-163.0,-11.0,-3148.0,-1567.0,-500.0,4000.0
-1066.0,-66.0,-36.0,-15.0,-1528.0,-961.0,-723.0,4000.0
-483.0,-3.0,371.0,-65.0,-384.0,194.0,-711.0,4000.0
3497.0,2.0,606.0,-96.0,1009.0,248.0,-642.0,3079.0
4000.0,25.0,556.0,-148.0,2100.0,113.0,-664.0,151.0
4000.0,124.0,512.0,-211.0,2972.0,-1663.0,-780.0,-2121.0
1822.0,138.0,577.0,-243.0,3853.0,-2558.0,-861.0,-4000.0
-4000.0,140.0,547.0,-259.0,4000.0,-685.0,-1006.0,-4000.0
-4000.0,197.0,523.0,-162.0,4000.0,-973.0,-1055.0,-4000.0
-4000.0,266.0,272.0,-28.0,4000.0,-1373.0,-1006.0,-3268.0
-4000.0,241.0,251.0,-48.0,3794.0,498.0,-1128.0,-1774.0
-4000.0,213.0,215.0,-91.0,3527.0,1799.0,-1076.0,-492.0
-4000.0,69.0,193.0,-45.0,3102.0,425.0,-1141.0,2054.0
-4000.0,-26.0,142.0,19.0,2019.0,-126.0,-1184.0,1012.0
-4000.0,-83.0,93.0,12.0,1279.0,188.0,-1271.0,662.0
-2370.0,38.0,138.0,-18.0,1117.0,-74.0,-1332.0,235.0
4000.0,241.0,113.0,-54.0,285.0,-31.0,-1332.0,-1045.0
2650.0,243.0,34.0,-184.0,-704.0,-202.0,-1454.0,-1208.0
-1277.0,224.0,-37.0,-285.0,-837.0,66.0,-1382.0,-108.0
-1005.0,21.0,-52.0,-355.0,-1595.0,5.0,-1358.0,881.0
-209.0,-139.0,-140.0,-503.0,-2277.0,177.0,-1332.0,426.0
-672.0,-196.0,-190.0,-580.0,-2436.0,154.0,-1332.0,760.0
-915.0,-267.0,-218.0,-489.0,-2912.0,191.0,-1184.0,349.0
1254.0,-215.0,-247.0,-332.0,-4000.0,293.0,-1071.0,276.0
2331.0,-158.0,-183.0,-214.0,-4000.0,217.0,-1141.0,220.0
1832.0,-118.0,-149.0,-145.0,-4000.0,361.0,-1038.0,108.0
243.0,-65.0,-145.0,-13.0,-4000.0,376.0,-998.0,100.0
-341.0,-88.0,-99.0,65.0,-4000.0,628.0,-867.0,-236.0
-746.0,-79.0,-80.0,105.0,-4000.0,732.0,-728.0,-500.0
782.0,34.0,-14.0,163.0,-4000.0,837.0,-615.0,-1012.0
3434.0,125.0,20.0,168.0,-4000.0,608.0,-481.0,-1404.0
1625.0,157.0,-44.0,207.0,-4000.0,406.0,-378.0,-2100.0
833.0,159.0,-56.0,226.0,-4000.0,303.0,-226.0,-2100.0
329.0,238.0,-37.0,419.0,-4000.0,178.0,-77.0,-2049.0
9.0,176.0,-17.0,773.0,-4000.0,243.0,99.0,-2086.0
834.0,33.0,-29.0,752.0,-4000.0,149.0,225.0,-1707.0
1051.0,17.0,-46.0,490.0,-4000.0,147.0,315.0,-974.0
1441.0,-42.0,-33.0,476.0,-4000.0,105.0,445.0,-223.0
1051.0,-128.0,-30.0,267.0,-4000.0,152.0,542.0,490.0
74.0,-212.0,-52.0,-20.0,-3381.0,169.0,608.0,1403.0
-714.0,-215.0,-45.0,-336.0,-2753.0,199.0,714.0,1573.0
251.0,-82.0,-30.0,-431.0,-1795.0,265.0,759.0,1598.0
986.0,-5.0,-76.0,-234.0,-1072.0,249.0,812.0,1000.0
1311.0,-35.0,-66.0,-206.0,-50.0,270.0,793.0,-327.0
1124.0,-133.0,-54.0,-16.0,141.0,254.0,860.0,783.0
870.0,-145.0,-69.0,189.0,196.0,246.0,903.0,2314.0
1189.0,-79.0,-17.0,298.0,245.0,256.0,883.0,1895.0
1030.0,-102.0,-15.0,102.0,459.0,254.0,999.0,2106.0
1051.0,-78.0,-80.0,-83.0,1272.0,276.0,883.0,1568.0
843.0,-38.0,-123.0,-110.0,1694.0,259.0,939.0,686.0
772.0,-19.0,-118.0,-184.0,2254.0,126.0,897.0,695.0
553.0,-20.0,-128.0,-233.0,2448.0,-30.0,661.0,213.0
320.0,-7.0,-164.0,-246.0,2695.0,-76.0,595.0,-217.0
155.0,28.0,-152.0,-129.0,3297.0,12.0,420.0,-143.0
86.0,75.0,-47.0,-21.0,4000.0,113.0,375.0,-42.0
110.0,122.0,-1.0,-3.0,4000.0,346.0,283.0,-557.0
28.0,128.0,-42.0,-114.0,4000.0,460.0,339.0,-936.0
77.0,160.0,-77.0,-74.0,4000.0,311.0,407.0,-824.0
199.0,176.0,-135.0,-83.0,4000.0,283.0,409.0,-489.0
566.0,266.0,-155.0,-84.0,4000.0,250.0,543.0,-685.0
543.0,384.0,-119.0,38.0,4000.0,208.0,608.0,-1256.0
325.0,420.0,-13.0,64.0,4000.0,113.0,791.0,-990.0
64.0,399.0,19.0,107.0,4000.0,41.0,832.0,-785.0
-221.0,298.0,-13.0,193.0,4000.0,23.0,954.0,-983.0
-515.0,152.0,0.0,524.0,4000.0,-144.0,1084.0,-1126.0
-765.0,46.0,-33.0,1287.0,4000.0,-232.0,1052.0,-1256.0
-696.0,76.0,-38.0,1566.0,4000.0,-149.0,1060.0,-720.0
-589.0,38.0,-18.0,849.0,3854.0,152.0,1072.0,-750.0
-604.0,-37.0,-15.0,236.0,4000.0,445.0,1098.0,-1439.0
-784.0,-14.0,19.0,-829.0,4000.0,479.0,1119.0,-1455.0
-896.0,-66.0,67.0,-1709.0,4000.0,311.0,1027.0,-1632.0
-771.0,-131.0,190.0,-1525.0,3334.0,61.0,962.0,-1762.0
-439.0,-44.0,334.0,-1545.0,2581.0,-119.0,1019.0,-1521.0
-306.0,-46.0,410.0,-1435.0,2060.0,-80.0,1060.0,-993.0
-184.0,-71.0,410.0,-900.0,1769.0,-47.0,954.0,-492.0
-88.0,-166.0,439.0,-125.0,1083.0,-206.0,749.0,-339.0
-222.0,-340.0,450.0,351.0,615.0,-213.0,610.0,-350.0
-3.0,-467.0,315.0,351.0,-84.0,-204.0,492.0,-706.0
-76.0,-700.0,24.0,272.0,-647.0,-188.0,308.0,-914.0
-445.0,-937.0,-316.0,428.0,-1039.0,-29.0,412.0,-824.0
-691.0,-960.0,-688.0,377.0,-1817.0,213.0,510.0,-431.0
-610.0,-696.0,-759.0,524.0,-2116.0,478.0,-124.0,-357.0
-162.0,-456.0,-454.0,720.0,-2377.0,137.0,-846.0,-638.0
-45.0,-398.0,-200.0,663.0,-2611.0,-773.0,-1551.0,-474.0
-87.0,-234.0,-52.0,762.0,-3066.0,-1623.0,-2186.0,-259.0
-20.0,-79.0,-47.0,604.0,-3586.0,-2177.0,-1997.0,-144.0
121.0,-52.0,-173.0,316.0,-3844.0,-2418.0,-1462.0,-65.0
135.0,8.0,-218.0,238.0,-3802.0,-2738.0,-728.0,169.0
186.0,135.0,-95.0,347.0,-3445.0,-2983.0,-182.0,677.0
408.0,251.0,28.0,219.0,-3327.0,-2815.0,-152.0,629.0
477.0,223.0,56.0,98.0,-3442.0,-2575.0,119.0,279.0
477.0,156.0,140.0,85.0,-3576.0,-2222.0,329.0,54.0
447.0,182.0,60.0,-76.0,-3474.0,-1886.0,368.0,-191.0
315.0,164.0,-88.0,-252.0,-3586.0,-371.0,538.0,-320.0
172.0,328.0,-122.0,-306.0,-4000.0,919.0,441.0,-525.0
15.0,489.0,-259.0,-344.0,-4000.0,811.0,281.0,-565.0
-114.0,347.0,-230.0,-318.0,-4000.0,1604.0,223.0,-492.0
-238.0,124.0,20.0,-128.0,-4000.0,2124.0,300.0,-321.0
-433.0,-239.0,60.0,-45.0,-4000.0,2425.0,433.0,-189.0
-515.0,-650.0,77.0,33.0,-4000.0,2550.0,459.0,302.0
-386.0,-383.0,93.0,81.0,-4000.0,2060.0,498.0,731.0
-143.0,52.0,121.0,113.0,-4000.0,1839.0,622.0,725.0
-69.0,186.0,238.0,217.0,-4000.0,1009.0,1054.0,825.0
-135.0,347.0,284.0,309.0,-4000.0,38.0,1919.0,104.0
-136.0,374.0,278.0,323.0,-4000.0,-796.0,3128.0,-753.0
-55.0,512.0,244.0,121.0,-3661.0,-1050.0,3607.0,-1494.0
20.0,1122.0,106.0,-93.0,-1849.0,-852.0,2908.0,-1279.0
-33.0,2233.0,35.0,-25.0,-354.0,-419.0,2125.0,-297.0
-147.0,2547.0,272.0,84.0,1053.0,420.0,268.0,108.0
-351.0,900.0,330.0,-105.0,2243.0,831.0,-1979.0,736.0
-451.0,-600.0,152.0,-388.0,4000.0,860.0,-3171.0,1177.0
-535.0,-1030.0,128.0,-417.0,4000.0,1026.0,-3078.0,1663.0
-641.0,-1506.0,39.0,-372.0,4000.0,1148.0,-1441.0,2371.0
-580.0,-1393.0,-72.0,-503.0,4000.0,921.0,-707.0,3014.0
-384.0,-1138.0,-38.0,-772.0,4000.0,856.0,-672.0,3395.0
-201.0,-960.0,-334.0,-1071.0,4000.0,1140.0,-876.0,3096.0
-81.0,-585.0,-825.0,-971.0,4000.0,1390.0,-1914.0,2572.0
109.0,-66.0,-633.0,-540.0,4000.0,1352.0,-992.0,2119.0
238.0,260.0,-144.0,-301.0,4000.0,1157.0,1084.0,1924.0
340.0,621.0,-48.0,-284.0,4000.0,921.0,1931.0,2367.0
334.0,1103.0,35.0,-171.0,4000.0,384.0,2048.0,3719.0
222.0,1193.0,193.0,-64.0,4000.0,141.0,2681.0,4000.0
157.0,1063.0,116.0,-86.0,4000.0,315.0,2256.0,4000.0
69.0,912.0,40.0,-56.0,4000.0,749.0,1605.0,4000.0
77.0,1038.0,-4.0,48.0,4000.0,1010.0,1996.0,4000.0
125.0,1097.0,46.0,110.0,4000.0,766.0,889.0,-947.0
137.0,917.0,-74.0,64.0,4000.0,528.0,-156.0,-4000.0
-30.0,374.0,-363.0,97.0,4000.0,-14.0,-394.0,-4000.0
-323.0,-183.0,-428.0,138.0,4000.0,-537.0,-124.0,-4000.0
-288.0,-292.0,-454.0,118.0,1657.0,-415.0,-64.0,-4000.0
-13.0,-513.0,-292.0,182.0,178.0,-29.0,-313.0,-4000.0
177.0,-1052.0,20.0,301.0,-299.0,-74.0,217.0,-4000.0
127.0,-1395.0,103.0,301.0,-2140.0,-207.0,661.0,-4000.0
-168.0,-1350.0,61.0,282.0,-4000.0,-94.0,897.0,-4000.0
-175.0,-1212.0,73.0,238.0,-4000.0,-152.0,563.0,-580.0
204.0,-732.0,60.0,187.0,-4000.0,-271.0,-583.0,3654.0
399.0,-181.0,86.0,223.0,-4000.0,-308.0,-784.0,4000.0
351.0,15.0,77.0,183.0,-4000.0,-348.0,-966.0,4000.0
293.0,135.0,66.0,162.0,-4000.0,-362.0,-3053.0,4000.0
169.0,74.0,92.0,175.0,-4000.0,-482.0,-3261.0,4000.0
214.0,-18.0,125.0,144.0,-4000.0,-580.0,-2793.0,4000.0
440.0,99.0,154.0,122.0,-4000.0,-406.0,-4000.0,4000.0
260.0,-78.0,147.0,187.0,-4000.0,-598.0,-3928.0,3487.0
-201.0,1623.0,201.0,199.0,-4000.0,-607.0,-3441.0,2507.0
-396.0,4000.0,259.0,276.0,-4000.0,-423.0,-3106.0,1688.0
-331.0,1974.0,272.0,419.0,-4000.0,-474.0,-1978.0,745.0
-147.0,-2204.0,251.0,402.0,-4000.0,-332.0,-620.0,212.0
5.0,-4000.0,333.0,457.0,-4000.0,-98.0,-233.0,-131.0
27.0,-4000.0,361.0,438.0,-4000.0,70.0,-933.0,-232.0
27.0,-4000.0,272.0,272.0,-4000.0,48.0,-1637.0,-333.0
60.0,-2941.0,153.0,91.0,-3213.0,220.0,-1887.0,-248.0
177.0,-802.0,-47.0,-165.0,-2105.0,793.0,-1448.0,277.0
145.0,386.0,-304.0,-458.0,-1102.0,1273.0,-542.0,1194.0
81.0,859.0,-541.0,-556.0,-974.0,883.0,-440.0,2302.0
40.0,1445.0,-538.0,-519.0,-1814.0,603.0,-876.0,2572.0
-113.0,2026.0,-403.0,-512.0,-2029.0,766.0,-1227.0,2748.0
8.0,3569.0,-419.0,-539.0,-631.0,693.0,-2186.0,3226.0
82.0,3079.0,-363.0,-555.0,3396.0,985.0,-3520.0,3275.0
-53.0,1961.0,-255.0,-508.0,4000.0,1227.0,-4000.0,2689.0
-125.0,1648.0,-192.0,-513.0,4000.0,1069.0,-2449.0,1986.0
-138.0,592.0,-75.0,-418.0,4000.0,902.0,-221.0,760.0
-34.0,9.0,74.0,-255.0,4000.0,636.0,563.0,-1298.0
-36.0,281.0,427.0,-146.0,2485.0,411.0,823.0,-3545.0
-92.0,410.0,979.0,-95.0,1207.0,622.0,538.0,-4000.0
18.0,-300.0,1549.0,-37.0,2363.0,933.0,-97.0,-4000.0
143.0,-1090.0,1549.0,13.0,4000.0,994.0,-598.0,-4000.0
149.0,-1350.0,1639.0,60.0,4000.0,467.0,-266.0,-4000.0
155.0,-1285.0,858.0,85.0,4000.0,-259.0,490.0,-4000.0
138.0,-367.0,-1041.0,74.0,4000.0,-297.0,897.0,-4000.0
85.0,746.0,-1947.0,95.0,4000.0,-272.0,1214.0,-4000.0
86.0,1506.0,-2369.0,103.0,4000.0,-362.0,1267.0,-4000.0
109.0,908.0,-1992.0,110.0,4000.0,-572.0,871.0,-1013.0
122.0,-150.0,-1537.0,84.0,4000.0,-838.0,571.0,2118.0
61.0,181.0,-1476.0,121.0,4000.0,-750.0,785.0,4000.0
1.0,1331.0,-1158.0,182.0,4000.0,-546.0,1129.0,4000.0
-98.0,2356.0,-480.0,217.0,4000.0,-338.0,1602.0,4000.0
-17.0,1713.0,373.0,307.0,4000.0,-521.0,1919.0,4000.0
53.0,228.0,507.0,311.0,3529.0,-485.0,2061.0,4000.0
70.0,-618.0,636.0,255.0,2683.0,-378.0,2036.0,4000.0
260.0,-952.0,858.0,199.0,2448.0,-710.0,1722.0,4000.0
250.0,-1277.0,712.0,207.0,2943.0,-586.0,1528.0,4000.0
137.0,-1030.0,546.0,236.0,3794.0,-448.0,1288.0,4000.0
44.0,-353.0,511.0,187.0,4000.0,-267.0,1255.0,4000.0
-17.0,115.0,506.0,134.0,2748.0,-227.0,1158.0,4000.0
-55.0,576.0,439.0,85.0,1644.0,-310.0,1019.0,4000.0
-50.0,581.0,439.0,20.0,2308.0,-87.0,875.0,4000.0
-234.0,-491.0,692.0,-65.0,2363.0,-247.0,767.0,4000.0
-560.0,-1401.0,1574.0,-181.0,1005.0,-200.0,767.0,4000.0
-560.0,-1182.0,2520.0,-190.0,-1584.0,-33.0,628.0,4000.0
-413.0,-895.0,2876.0,-202.0,-1442.0,-185.0,627.0,4000.0
-69.0,-700.0,3564.0,-163.0,156.0,-489.0,535.0,2640.0
334.0,-541.0,3510.0,-78.0,859.0,-284.0,400.0,-577.0
342.0,-318.0,2005.0,-114.0,3541.0,13.0,355.0,-3753.0
-82.0,-209.0,-26.0,-83.0,4000.0,-20.0,268.0,-4000.0
-427.0,-188.0,-1944.0,-86.0,4000.0,32.0,291.0,-4000.0
-467.0,-115.0,-3832.0,-62.0,4000.0,18.0,343.0,-4000.0
-234.0,-152.0,-3730.0,-75.0,4000.0,-37.0,184.0,-4000.0
82.0,-114.0,-1758.0,-122.0,4000.0,-287.0,89.0,-4000.0
504.0,-105.0,-367.0,-170.0,4000.0,-116.0,76.0,-4000.0
1540.0,102.0,354.0,-157.0,4000.0,112.0,47.0,-4000.0
2350.0,306.0,-1388.0,69.0,4000.0,119.0,191.0,-4000.0
1949.0,477.0,-3307.0,64.0,4000.0,228.0,276.0,-4000.0
870.0,460.0,-4000.0,-6.0,4000.0,301.0,367.0,-4000.0
222.0,286.0,-4000.0,57.0,1865.0,243.0,404.0,-4000.0
187.0,347.0,-3046.0,60.0,-3042.0,56.0,73.0,-4000.0
1156.0,406.0,-2601.0,16.0,-4000.0,110.0,-162.0,-4000.0
3757.0,447.0,-1602.0,23.0,-4000.0,86.0,-33.0,-4000.0
4000.0,442.0,-898.0,-6.0,-4000.0,82.0,286.0,-4000.0
1832.0,451.0,263.0,-57.0,-4000.0,54.0,628.0,-1042.0
-1365.0,411.0,1416.0,15.0,-4000.0,-107.0,871.0,2510.0
-3412.0,321.0,2135.0,42.0,-4000.0,-129.0,832.0,4000.0
-2875.0,319.0,1704.0,99.0,-4000.0,-51.0,604.0,4000.0
-1853.0,212.0,828.0,142.0,-4000.0,-21.0,526.0,4000.0
-337.0,99.0,1571.0,105.0,-4000.0,-19.0,336.0,4000.0
3694.0,111.0,2289.0,31.0,-4000.0,-7.0,172.0,4000.0
3443.0,93.0,2224.0,-10.0,-4000.0,-70.0,185.0,4000.0
-1430.0,40.0,1824.0,53.0,-4000.0,-142.0,188.0,4000.0
-4000.0,51.0,1171.0,76.0,-2664.0,-188.0,178.0,4000.0
-4000.0,102.0,337.0,104.0,399.0,-82.0,105.0,4000.0
-4000.0,117.0,288.0,152.0,3837.0,5.0,26.0,1281.0
-4000.0,-46.0,272.0,227.0,3151.0,107.0,-39.0,-2015.0
-4000.0,-310.0,1361.0,229.0,3916.0,301.0,-142.0,-3462.0
-4000.0,-566.0,3593.0,126.0,4000.0,368.0,-247.0,-3988.0
-61.0,-536.0,4000.0,-41.0,4000.0,353.0,-278.0,-4000.0
4000.0,-476.0,4000.0,-152.0,4000.0,112.0,-287.0,-4000.0
3182.0,-356.0,4000.0,-195.0,4000.0,-109.0,-280.0,-4000.0
2144.0,-113.0,343.0,-253.0,4000.0,-32.0,-290.0,-4000.0
2545.0,-215.0,-4000.0,-321.0,4000.0,85.0,-287.0,-4000.0
876.0,-410.0,-4000.0,-411.0,4000.0,54.0,-371.0,-4000.0
-1069.0,-505.0,-4000.0,-386.0,4000.0,9.0,-412.0,-4000.0
-178.0,-576.0,-4000.0,-302.0,4000.0,31.0,-320.0,-4000.0
2480.0,-671.0,-4000.0,-105.0,4000.0,27.0,-320.0,-4000.0
4000.0,-602.0,-4000.0,2.0,4000.0,-98.0,-213.0,-4000.0
4000.0,-423.0,-4000.0,-1.0,2581.0,-167.0,-92.0,-4000.0
4000.0,-151.0,-3926.0,91.0,993.0,-253.0,-98.0,-4000.0
-1815.0,-104.0,-1492.0,142.0,-1.0,-347.0,-130.0,-4000.0
-4000.0,-133.0,923.0,402.0,-456.0,-403.0,-220.0,-4000.0
-4000.0,37.0,1029.0,447.0,-1304.0,-428.0,-318.0,-4000.0
562.0,193.0,1627.0,199.0,-1882.0,-333.0,-327.0,-4000.0
4000.0,254.0,3462.0,29.0,-2530.0,-189.0,-241.0,-4000.0
4000.0,187.0,2539.0,-161.0,-2369.0,-151.0,-167.0,-4000.0
2809.0,227.0,1306.0,-255.0,-2935.0,-188.0,-112.0,-4000.0
-901.0,241.0,2278.0,-391.0,-3262.0,-159.0,-29.0,-3610.0
-3786.0,251.0,4000.0,-455.0,-3923.0,-82.0,-66.0,-3516.0
-4000.0,290.0,4000.0,-382.0,-4000.0,-27.0,-77.0,-4000.0
-4000.0,420.0,4000.0,-271.0,-4000.0,25.0,9.0,-4000.0
-2322.0,500.0,4000.0,-59.0,-4000.0,26.0,-36.0,-4000.0
-2374.0,517.0,3853.0,87.0,-4000.0,-35.0,-23.0,-4000.0
-4000.0,530.0,-4000.0,141.0,-4000.0,-66.0,9.0,-4000.0
-4000.0,530.0,-4000.0,12.0,-4000.0,-138.0,2.0,-4000.0
-2891.0,615.0,-4000.0,-153.0,-4000.0,-187.0,8.0,-2415.0
4000.0,460.0,-2763.0,-233.0,-4000.0,-237.0,-69.0,-166.0
4000.0,276.0,-450.0,-201.0,-4000.0,-282.0,-72.0,2154.0
4000.0,208.0,-2462.0,62.0,-3767.0,-220.0,-61.0,3328.0
4000.0,98.0,-4000.0,179.0,-3498.0,-190.0,-40.0,1241.0
2406.0,93.0,-4000.0,158.0,-3066.0,-87.0,-56.0,-3073.0
-323.0,187.0,-4000.0,138.0,-2537.0,20.0,-130.0,-4000.0
-1201.0,190.0,-354.0,100.0,-1182.0,17.0,-122.0,-3256.0
1246.0,117.0,-3111.0,64.0,45.0,113.0,-117.0,-2100.0
361.0,36.0,-4000.0,-11.0,713.0,148.0,-104.0,69.0
2258.0,-73.0,-4000.0,-136.0,1918.0,27.0,-30.0,3393.0
2793.0,-29.0,-4000.0,-273.0,2504.0,50.0,53.0,4000.0
1181.0,-7.0,-4000.0,-41.0,3006.0,87.0,98.0,4000.0
-844.0,-3.0,-1197.0,341.0,3074.0,105.0,54.0,4000.0
-3246.0,78.0,1636.0,290.0,3215.0,191.0,10.0,4000.0
-1540.0,71.0,2600.0,191.0,3982.0,228.0,48.0,4000.0
505.0,132.0,3983.0,142.0,4000.0,228.0,181.0,4000.0
54.0,365.0,3202.0,-89.0,4000.0,281.0,364.0,4000.0
373.0,876.0,3763.0,-227.0,4000.0,406.0,521.0,4000.0
430.0,1142.0,4000.0,-154.0,4000.0,480.0,506.0,4000.0
220.0,882.0,3185.0,81.0,4000.0,445.0,457.0,4000.0
328.0,556.0,2224.0,280.0,4000.0,401.0,429.0,4000.0
18.0,70.0,3072.0,290.0,4000.0,303.0,339.0,4000.0
-655.0,-461.0,3593.0,113.0,4000.0,271.0,336.0,4000.0
-523.0,-830.0,4000.0,6.0,4000.0,325.0,246.0,4000.0
668.0,-1218.0,4000.0,185.0,4000.0,201.0,229.0,4000.0
2614.0,-1399.0,4000.0,223.0,4000.0,25.0,254.0,1895.0
4000.0,-1290.0,4000.0,-44.0,4000.0,-177.0,0.0,-2099.0
2545.0,-1206.0,1133.0,-312.0,4000.0,-244.0,-163.0,-4000.0
595.0,-1155.0,852.0,-383.0,4000.0,-202.0,-176.0,-4000.0
-960.0,-901.0,125.0,-455.0,4000.0,-262.0,-198.0,-679.0
-590.0,-549.0,306.0,-641.0,4000.0,-280.0,-211.0,831.0
2288.0,-379.0,-281.0,-682.0,3916.0,-340.0,-228.0,474.0
3135.0,-209.0,-308.0,-645.0,2825.0,-317.0,81.0,1907.0
863.0,-55.0,-200.0,-589.0,2320.0,-354.0,221.0,1334.0
-2920.0,60.0,-253.0,-384.0,2254.0,-414.0,94.0,1334.0
-4000.0,-19.0,228.0,-38.0,2556.0,-362.0,188.0,1085.0
-4000.0,-141.0,366.0,244.0,2581.0,-202.0,-3.0,1000.0
-3441.0,15.0,402.0,352.0,2504.0,144.0,-91.0,1195.0
-4000.0,205.0,598.0,282.0,2308.0,160.0,113.0,817.0
-3609.0,294.0,1314.0,196.0,1992.0,50.0,53.0,742.0
-3111.0,305.0,1174.0,81.0,1930.0,-33.0,-7.0,314.0
-4000.0,203.0,840.0,-53.0,1287.0,-146.0,274.0,-111.0
-1292.0,114.0,372.0,-160.0,-388.0,-104.0,359.0,-1058.0
660.0,241.0,7.0,-110.0,-2386.0,-16.0,283.0,-659.0
-1271.0,329.0,-173.0,336.0,-4000.0,184.0,246.0,269.0
-3087.0,347.0,-230.0,622.0,-4000.0,479.0,188.0,-1429.0
-3224.0,374.0,128.0,699.0,-4000.0,480.0,339.0,-2676.0
-2541.0,290.0,-48.0,538.0,-4000.0,319.0,294.0,87.0
-1110.0,290.0,-157.0,161.0,-2794.0,429.0,-5.0,922.0
-590.0,281.0,-49.0,-132.0,-4000.0,364.0,-200.0,-84.0
1110.0,212.0,-193.0,-344.0,-4000.0,130.0,-239.0,556.0
1450.0,314.0,-716.0,-454.0,-4000.0,15.0,-94.0,-717.0
1346.0,294.0,-637.0,-352.0,-4000.0,4.0,93.0,-1756.0
1840.0,303.0,-245.0,-255.0,-4000.0,4.0,97.0,-3268.0
1897.0,298.0,-393.0,57.0,-4000.0,4.0,-211.0,-4000.0
2192.0,189.0,-1063.0,490.0,-4000.0,-107.0,-940.0,-4000.0
2585.0,182.0,-1881.0,1119.0,-4000.0,-362.0,-1448.0,-4000.0
3041.0,101.0,-1944.0,1931.0,-4000.0,-388.0,-1136.0,-4000.0
4000.0,49.0,-1667.0,1405.0,-4000.0,-350.0,-55.0,-4000.0
4000.0,24.0,-997.0,994.0,-4000.0,-378.0,1444.0,-4000.0
4000.0,-19.0,-578.0,451.0,-4000.0,-232.0,2036.0,-4000.0
624.0,-87.0,-502.0,-770.0,-4000.0,1.0,1548.0,-3374.0
-4000.0,-106.0,-209.0,-1500.0,-4000.0,329.0,877.0,-3385.0
-4000.0,-58.0,-271.0,-2053.0,-4000.0,333.0,310.0,-4000.0
-4000.0,-44.0,-157.0,-1787.0,-4000.0,126.0,359.0,-4000.0
-1267.0,14.0,-149.0,-1557.0,-4000.0,220.0,407.0,-3824.0
228.0,44.0,47.0,-906.0,-4000.0,-35.0,-143.0,-1558.0
530.0,-33.0,55.0,-276.0,-4000.0,-210.0,-555.0,-655.0
-533.0,-42.0,-737.0,-283.0,-4000.0,-128.0,-534.0,-1143.0
-220.0,17.0,-1036.0,523.0,-4000.0,-106.0,-493.0,-1579.0
473.0,54.0,-1280.0,828.0,-4000.0,-25.0,-439.0,-1404.0
627.0,34.0,-1284.0,157.0,-4000.0,6.0,-63.0,-870.0
1059.0,-93.0,-393.0,161.0,-3576.0,105.0,359.0,320.0
782.0,-135.0,490.0,-72.0,-2421.0,457.0,365.0,1272.0
312.0,-93.0,807.0,-979.0,-1072.0,414.0,368.0,1460.0
100.0,-79.0,385.0,-1266.0,-862.0,68.0,155.0,1319.0
782.0,-94.0,-165.0,-819.0,-909.0,-77.0,-269.0,1547.0
660.0,-145.0,-269.0,-202.0,-588.0,-398.0,-122.0,1012.0
-172.0,-140.0,-303.0,-510.0,27.0,-591.0,138.0,149.0
-590.0,-103.0,-318.0,-1180.0,1026.0,-680.0,472.0,666.0
228.0,-93.0,-494.0,-1297.0,1657.0,-448.0,818.0,645.0
408.0,-43.0,-702.0,-1036.0,1901.0,43.0,576.0,1091.0
135.0,-75.0,-519.0,-129.0,1769.0,51.0,339.0,1272.0
177.0,-14.0,-707.0,459.0,1666.0,246.0,-349.0,825.0
-21.0,43.0,-490.0,1090.0,1666.0,811.0,-1318.0,658.0
1161.0,-34.0,-257.0,1816.0,1601.0,459.0,-1422.0,334.0
4000.0,-89.0,-338.0,1501.0,1644.0,-141.0,-1309.0,77.0
4000.0,-160.0,157.0,1045.0,1258.0,246.0,-489.0,-121.0
4000.0,-153.0,104.0,1241.0,790.0,555.0,256.0,394.0
-296.0,-143.0,476.0,850.0,145.0,126.0,-646.0,487.0
-4000.0,-125.0,858.0,-544.0,-827.0,-69.0,-1665.0,556.0
-4000.0,-54.0,728.0,-1222.0,-1879.0,25.0,-2471.0,603.0
-2786.0,-16.0,559.0,-2377.0,-2160.0,747.0,-2536.0,1065.0
-2188.0,70.0,48.0,-2896.0,-1898.0,1842.0,-1332.0,1750.0
-4000.0,63.0,-495.0,-2549.0,-1520.0,1473.0,-393.0,1598.0
-4000.0,33.0,-814.0,-2442.0,-903.0,537.0,-75.0,2054.0
-4000.0,116.0,-414.0,-1222.0,-1007.0,50.0,-733.0,2624.0
-4000.0,215.0,134.0,-742.0,-1185.0,-501.0,-1370.0,3535.0
-3087.0,222.0,441.0,-894.0,-963.0,-167.0,-1673.0,3700.0
-255.0,167.0,618.0,-371.0,-612.0,778.0,-1822.0,3067.0
2523.0,135.0,533.0,-1435.0,-201.0,1468.0,-774.0,3910.0
2341.0,40.0,410.0,-1610.0,627.0,1344.0,-233.0,4000.0
2458.0,2.0,533.0,1761.0,1329.0,-101.0,-668.0,3144.0
2518.0,55.0,337.0,3751.0,1865.0,-398.0,-646.0,2310.0
3443.0,-76.0,-26.0,4000.0,2683.0,-621.0,-485.0,2054.0
4000.0,-230.0,-633.0,3755.0,2943.0,-1198.0,-737.0,1221.0
3265.0,-224.0,-1081.0,3491.0,4000.0,-1376.0,-737.0,518.0
2196.0,-244.0,-866.0,3820.0,4000.0,-1605.0,-163.0,373.0
2092.0,-236.0,-576.0,2673.0,4000.0,-750.0,1013.0,621.0
-1616.0,-215.0,-304.0,2543.0,4000.0,-521.0,1658.0,612.0
-3411.0,-241.0,-385.0,2981.0,4000.0,-247.0,214.0,544.0
-2708.0,-183.0,-211.0,1748.0,4000.0,933.0,-2179.0,678.0
-1105.0,-78.0,-5.0,-3428.0,4000.0,1982.0,-4000.0,182.0
-830.0,-122.0,-66.0,-4000.0,4000.0,1917.0,-4000.0,-248.0
-2126.0,-72.0,229.0,-4000.0,4000.0,-147.0,-3572.0,-889.0
-1105.0,-27.0,207.0,190.0,4000.0,-1943.0,-1011.0,-1626.0
-2345.0,-69.0,137.0,3910.0,4000.0,-2335.0,359.0,-2165.0
-2968.0,-59.0,280.0,4000.0,4000.0,-2185.0,1007.0,-2276.0
-2466.0,-66.0,272.0,4000.0,4000.0,-1582.0,1019.0,-2347.0
-2350.0,-10.0,89.0,3169.0,4000.0,-2353.0,1392.0,-2427.0
-1430.0,95.0,-16.0,2517.0,4000.0,-3246.0,934.0,-3007.0
28.0,191.0,107.0,1920.0,4000.0,-510.0,-42.0,-3480.0
4000.0,147.0,152.0,1804.0,4000.0,3007.0,281.0,-2698.0
4000.0,114.0,18.0,1033.0,4000.0,1474.0,2761.0,-2425.0
4000.0,50.0,-218.0,1189.0,4000.0,-3311.0,3661.0,-2759.0
-2761.0,-5.0,-204.0,2193.0,4000.0,-4000.0,1418.0,-2283.0
-3661.0,8.0,75.0,1591.0,4000.0,-3246.0,166.0,-979.0
-4000.0,-57.0,266.0,394.0,3810.0,-126.0,-98.0,-348.0
-2258.0,-149.0,448.0,88.0,2681.0,3409.0,-286.0,-1127.0
-277.0,-26.0,443.0,-211.0,1853.0,4000.0,319.0,-1790.0
430.0,239.0,313.0,-1174.0,938.0,2824.0,1418.0,-1375.0
911.0,200.0,335.0,-3493.0,131.0,2060.0,1843.0,-1143.0
25.0,41.0,410.0,-4000.0,-622.0,2824.0,2696.0,-1250.0
2453.0,4.0,402.0,-4000.0,-1378.0,3723.0,3658.0,-1241.0
4000.0,-78.0,-27.0,-4000.0,-2095.0,3861.0,3597.0,-889.0
4000.0,-195.0,-129.0,-4000.0,-2794.0,1710.0,3103.0,-537.0
4000.0,-232.0,153.0,-3547.0,-3262.0,-1231.0,3594.0,174.0
-1175.0,-163.0,150.0,-1955.0,-3838.0,-1811.0,4000.0,927.0
-889.0,-131.0,24.0,-702.0,-4000.0,-630.0,4000.0,896.0
-4000.0,-117.0,-92.0,310.0,-4000.0,67.0,4000.0,1071.0
-4000.0,-83.0,-158.0,182.0,-4000.0,163.0,4000.0,1541.0
-4000.0,-43.0,68.0,161.0,-4000.0,953.0,-546.0,2248.0
-4000.0,70.0,93.0,355.0,-4000.0,2905.0,-4000.0,2883.0
-4000.0,180.0,-304.0,142.0,-4000.0,3199.0,-4000.0,2624.0
-4000.0,200.0,-337.0,-24.0,-4000.0,2056.0,-2317.0,2445.0
-831.0,254.0,-186.0,-397.0,-3754.0,1655.0,-1690.0,2153.0
220.0,319.0,-102.0,-540.0,-2870.0,1547.0,-359.0,1324.0
430.0,241.0,-299.0,-523.0,-1607.0,2124.0,2309.0,732.0
1540.0,263.0,-477.0,-401.0,-152.0,2710.0,3347.0,279.0
1189.0,245.0,-102.0,-565.0,1213.0,2775.0,3151.0,74.0
235.0,135.0,277.0,-366.0,2776.0,1247.0,3009.0,-76.0
503.0,102.0,-144.0,-54.0,4000.0,-940.0,2973.0,-166.0
3004.0,143.0,-1362.0,167.0,4000.0,-2025.0,2749.0,-116.0
4000.0,174.0,-937.0,360.0,4000.0,-3179.0,2161.0,-435.0
3052.0,85.0,1093.0,199.0,4000.0,-2983.0,1248.0,-671.0
-1351.0,83.0,1615.0,-28.0,4000.0,-2998.0,707.0,-840.0
-2968.0,131.0,1871.0,255.0,4000.0,-2481.0,557.0,-818.0
-3780.0,78.0,1609.0,559.0,4000.0,-1461.0,903.0,-650.0
-844.0,66.0,-8.0,298.0,4000.0,-2014.0,897.0,-736.0
798.0,24.0,-1158.0,394.0,2889.0,-1816.0,1208.0,-620.0
1222.0,-63.0,-1214.0,363.0,1604.0,-2750.0,2309.0,-1200.0
757.0,-147.0,-1348.0,356.0,547.0,-3535.0,2318.0,-1514.0
430.0,-108.0,-963.0,858.0,-1163.0,-3079.0,637.0,-389.0
1606.0,-47.0,280.0,1249.0,-2611.0,-3079.0,-1572.0,742.0
1767.0,-118.0,99.0,1436.0,-4000.0,-2928.0,-4000.0,794.0
1541.0,-142.0,246.0,1418.0,-4000.0,-3104.0,-4000.0,85.0
965.0,-166.0,1379.0,1175.0,-4000.0,-2932.0,-4000.0,399.0
782.0,-176.0,2094.0,882.0,-4000.0,-2469.0,-1193.0,992.0
-413.0,-172.0,2201.0,720.0,-4000.0,-1764.0,-658.0,1077.0
717.0,-172.0,1479.0,622.0,-4000.0,-1118.0,416.0,2119.0
1962.0,-138.0,460.0,382.0,-4000.0,-982.0,746.0,3469.0
1515.0,-155.0,-75.0,74.0,-4000.0,-855.0,1013.0,4000.0
3378.0,-109.0,-606.0,51.0,-4000.0,-236.0,-1730.0,4000.0
1872.0,-21.0,-2027.0,221.0,-4000.0,449.0,-3506.0,4000.0
-866.0,38.0,-4000.0,106.0,-4000.0,622.0,-3802.0,2640.0
-741.0,56.0,-4000.0,23.0,-4000.0,577.0,-3510.0,-4000.0
-1912.0,-10.0,-1237.0,242.0,-4000.0,967.0,171.0,-4000.0
2093.0,-88.0,1757.0,661.0,-4000.0,1657.0,1463.0,-4000.0
4000.0,-72.0,2795.0,956.0,-4000.0,1656.0,2944.0,-3462.0
-2564.0,-6.0,1574.0,598.0,-4000.0,1142.0,2777.0,-914.0
-4000.0,1.0,-3540.0,77.0,-4000.0,940.0,-652.0,593.0
-4000.0,38.0,-4000.0,132.0,-4000.0,1026.0,-3147.0,590.0
-4000.0,19.0,-3847.0,144.0,-4000.0,877.0,-2714.0,-853.0
2219.0,98.0,306.0,-441.0,-4000.0,527.0,326.0,-2035.0
3508.0,233.0,4000.0,-780.0,-4000.0,294.0,299.0,-2918.0
2728.0,191.0,4000.0,-690.0,-4000.0,1010.0,-1397.0,-3060.0
4000.0,71.0,4000.0,-589.0,-4000.0,1755.0,-3700.0,-2937.0
4000.0,-209.0,1387.0,-510.0,-3767.0,1721.0,-4000.0,-3373.0
-2098.0,-401.0,785.0,-822.0,-3066.0,1527.0,-2401.0,-3588.0
-4000.0,-248.0,2290.0,-1174.0,-2692.0,919.0,-1583.0,-3073.0
-4000.0,-83.0,3112.0,-1157.0,-2341.0,811.0,-550.0,-2022.0
-4000.0,-40.0,1098.0,-971.0,-1898.0,1163.0,598.0,-934.0
-2920.0,63.0,-3689.0,-1135.0,-1573.0,857.0,1605.0,302.0
-1235.0,63.0,-3290.0,-1174.0,-1584.0,280.0,2033.0,336.0
-296.0,130.0,606.0,-1036.0,-1756.0,274.0,-123.0,-643.0
-2090.0,214.0,2201.0,-894.0,-2147.0,209.0,-3753.0,-1339.0
-3282.0,217.0,3462.0,-393.0,-2598.0,-35.0,-4000.0,-1105.0
-2539.0,227.0,1237.0,-91.0,-3083.0,-251.0,-4000.0,-602.0
-1277.0,134.0,793.0,-13.0,-3767.0,-447.0,-4000.0,-557.0
-1560.0,70.0,-4000.0,354.0,-4000.0,-447.0,-3766.0,-529.0
4000.0,34.0,-4000.0,630.0,-4000.0,-535.0,-2663.0,-288.0
4000.0,163.0,-4000.0,728.0,-4000.0,-576.0,-226.0,112.0
4000.0,251.0,-4000.0,1104.0,-4000.0,-663.0,767.0,-53.0
1572.0,217.0,4000.0,1306.0,-4000.0,-535.0,-723.0,-47.0
-323.0,233.0,4000.0,1241.0,-4000.0,-281.0,-1422.0,159.0
908.0,132.0,4000.0,1102.0,-4000.0,13.0,-672.0,775.0
-1640.0,-7.0,4000.0,858.0,-4000.0,262.0,-546.0,1437.0
-4000.0,-106.0,4000.0,598.0,-4000.0,510.0,346.0,1323.0
-4000.0,-111.0,4000.0,370.0,-4000.0,880.0,3009.0,1122.0
-2855.0,-109.0,-776.0,268.0,-380.0,1018.0,4000.0,1012.0
-215.0,-38.0,-1517.0,77.0,4000.0,1148.0,4000.0,1112.0
-470.0,149.0,-1406.0,12.0,4000.0,1417.0,3855.0,1136.0
-3046.0,410.0,-1468.0,26.0,4000.0,1775.0,2777.0,861.0
-4000.0,399.0,-3225.0,40.0,4000.0,1991.0,4000.0,531.0
-2955.0,65.0,-4000.0,41.0,4000.0,2243.0,4000.0,606.0
2597.0,-55.0,-4000.0,64.0,4000.0,2375.0,2843.0,1195.0
4000.0,-85.0,-4000.0,225.0,4000.0,2159.0,-685.0,1450.0
4000.0,-31.0,-4000.0,458.0,4000.0,1539.0,-4000.0,849.0
4000.0,-111.0,-4000.0,619.0,4000.0,815.0,-4000.0,329.0
-2012.0,-112.0,-4000.0,419.0,4000.0,431.0,-3050.0,389.0
-2256.0,-39.0,-4000.0,149.0,4000.0,498.0,1602.0,475.0
-1280.0,-212.0,-4000.0,4.0,4000.0,321.0,3400.0,442.0
970.0,-134.0,-4000.0,-181.0,4000.0,232.0,2387.0,302.0
1766.0,-92.0,-4000.0,-386.0,4000.0,784.0,2552.0,-80.0
1429.0,87.0,-2175.0,-680.0,4000.0,805.0,1825.0,-431.0
-327.0,95.0,104.0,-873.0,4000.0,432.0,194.0,-604.0
-1140.0,99.0,2071.0,-870.0,4000.0,-4.0,-39.0,-527.0
-895.0,203.0,3510.0,-784.0,4000.0,62.0,48.0,-59.0
318.0,-27.0,4000.0,-652.0,2707.0,256.0,637.0,220.0
4000.0,-182.0,4000.0,-527.0,-399.0,-147.0,1214.0,189.0
4000.0,-414.0,1940.0,-488.0,-2676.0,-68.0,1033.0,95.0
4000.0,-488.0,-2418.0,-336.0,-4000.0,256.0,921.0,-146.0
-4000.0,-293.0,-4000.0,-120.0,-4000.0,457.0,620.0,-119.0
-4000.0,-141.0,-4000.0,-61.0,-4000.0,71.0,1214.0,308.0
-4000.0,-2.0,-4000.0,44.0,-4000.0,-1053.0,1735.0,686.0
-4000.0,73.0,-1758.0,341.0,-4000.0,-1912.0,510.0,851.0
-1996.0,53.0,3829.0,497.0,-4000.0,-1599.0,-697.0,1112.0
-3615.0,39.0,4000.0,161.0,-4000.0,-988.0,58.0,1521.0
-3084.0,-90.0,4000.0,-195.0,-4000.0,-1188.0,3216.0,1697.0
-1260.0,33.0,4000.0,-302.0,-4000.0,-1075.0,4000.0,1660.0
147.0,386.0,4000.0,-433.0,-4000.0,-411.0,2322.0,1769.0
3973.0,460.0,1745.0,-414.0,-4000.0,860.0,-4000.0,1859.0
2158.0,460.0,1361.0,-320.0,-4000.0,1201.0,-4000.0,1986.0
-4000.0,316.0,801.0,-212.0,-4000.0,254.0,-4000.0,1924.0
-4000.0,142.0,-1974.0,-91.0,-4000.0,-259.0,-3700.0,1688.0
-3544.0,99.0,-3136.0,36.0,-4000.0,-832.0,2647.0,1272.0
-4000.0,49.0,450.0,85.0,-4000.0,-600.0,2712.0,896.0
-3218.0,37.0,-52.0,-29.0,-4000.0,-63.0,416.0,912.0
-779.0,108.0,-3605.0,-51.0,-4000.0,149.0,1705.0,556.0
4000.0,129.0,-2895.0,161.0,-4000.0,1072.0,376.0,296.0
4000.0,43.0,-2123.0,301.0,-4000.0,1842.0,-54.0,182.0
3117.0,-68.0,-3340.0,152.0,-4000.0,2512.0,693.0,-24.0
-1300.0,-165.0,1608.0,24.0,-4000.0,2940.0,141.0,-111.0
-2010.0,-125.0,4000.0,-106.0,-3380.0,2316.0,470.0,-523.0
-1402.0,-106.0,3007.0,-188.0,48.0,1409.0,350.0,-940.0
-255.0,-86.0,-24.0,-263.0,3215.0,933.0,362.0,-1384.0
243.0,-127.0,-4000.0,-227.0,4000.0,933.0,-94.0,-1782.0
-1475.0,-275.0,-4000.0,-81.0,4000.0,815.0,91.0,-1723.0
-1003.0,-231.0,2924.0,10.0,4000.0,415.0,962.0,-1534.0
346.0,-142.0,4000.0,116.0,4000.0,148.0,1919.0,-1387.0
1606.0,-142.0,4000.0,81.0,4000.0,-98.0,4000.0,-1339.0
1766.0,-91.0,1936.0,43.0,4000.0,-224.0,4000.0,-1078.0
2392.0,-104.0,-1492.0,107.0,4000.0,-555.0,4000.0,-475.0
2024.0,-236.0,-2884.0,232.0,4000.0,-939.0,-2923.0,108.0
2024.0,-280.0,-532.0,199.0,4000.0,-1446.0,-4000.0,670.0
1791.0,-232.0,1700.0,187.0,4000.0,-1898.0,-4000.0,731.0
1435.0,-181.0,1021.0,271.0,4000.0,-1995.0,-4000.0,666.0
1755.0,-55.0,-1714.0,363.0,4000.0,-1831.0,-587.0,882.0
1488.0,25.0,-3355.0,428.0,4000.0,-1070.0,-1702.0,863.0
1572.0,18.0,-3030.0,402.0,4000.0,-472.0,-133.0,1077.0
1376.0,86.0,-757.0,425.0,4000.0,-423.0,2061.0,1142.0
1820.0,197.0,-2299.0,341.0,4000.0,-459.0,4000.0,1286.0
1356.0,225.0,-3866.0,264.0,4000.0,-645.0,4000.0,1450.0
855.0,200.0,-3782.0,163.0,2907.0,-779.0,3298.0,1650.0
1051.0,157.0,-3225.0,156.0,1032.0,-468.0,50.0,2544.0
24.0,115.0,-1881.0,149.0,-566.0,-645.0,-3390.0,3161.0
-6.0,157.0,-1520.0,109.0,-1768.0,-1847.0,-3835.0,3469.0
530.0,102.0,-438.0,81.0,-2664.0,-3749.0,-1317.0,3552.0
395.0,28.0,288.0,6.0,-3327.0,-4000.0,954.0,3521.0
222.0,69.0,899.0,-39.0,-3367.0,-4000.0,1027.0,3422.0
-649.0,-29.0,1627.0,-93.0,-2561.0,-4000.0,557.0,2966.0
-1834.0,-81.0,1574.0,-82.0,-1528.0,-4000.0,481.0,1753.0
-2142.0,4.0,703.0,-25.0,-364.0,-4000.0,1128.0,282.0
-1978.0,82.0,611.0,-57.0,426.0,-4000.0,2058.0,-1430.0
-1931.0,215.0,1053.0,-147.0,1188.0,-1357.0,1475.0,-3073.0
-1622.0,328.0,1375.0,-98.0,1657.0,1666.0,1787.0,-4000.0
-1417.0,282.0,1574.0,-101.0,1601.0,3526.0,1512.0,-4000.0
-1105.0,269.0,1322.0,-147.0,2035.0,4000.0,1670.0,-4000.0
-844.0,355.0,1444.0,-107.0,1995.0,4000.0,1837.0,-4000.0
-288.0,420.0,1368.0,-136.0,1148.0,3655.0,1575.0,-4000.0
183.0,430.0,1365.0,-195.0,190.0,2099.0,1705.0,-3581.0
143.0,298.0,1365.0,-233.0,-457.0,896.0,1786.0,-3024.0
222.0,50.0,1574.0,-217.0,-1292.0,457.0,1982.0,-2425.0
209.0,-131.0,2455.0,-255.0,-2419.0,479.0,1825.0,-2024.0
465.0,-398.0,3185.0,-265.0,-3508.0,888.0,1735.0,-1632.0
719.0,-757.0,2278.0,-277.0,-4000.0,1547.0,1843.0,-1322.0
961.0,-676.0,624.0,-318.0,-4000.0,2124.0,1353.0,-1078.0
1175.0,-236.0,337.0,-266.0,-4000.0,2447.0,349.0,-1013.0
683.0,58.0,891.0,-149.0,-4000.0,2515.0,-182.0,-862.0
428.0,83.0,923.0,-73.0,-4000.0,2355.0,-802.0,-683.0
863.0,392.0,415.0,-78.0,-4000.0,1982.0,-992.0,-496.0
1254.0,581.0,272.0,-85.0,-4000.0,1669.0,-927.0,-154.0
1435.0,319.0,-152.0,-53.0,-4000.0,1279.0,-98.0,178.0
1246.0,-7.0,-292.0,-50.0,-4000.0,758.0,844.0,332.0
-331.0,-598.0,695.0,-36.0,-4000.0,758.0,538.0,296.0
-2702.0,-1268.0,772.0,105.0,-4000.0,1325.0,-72.0,409.0
-2043.0,-2074.0,-371.0,169.0,-4000.0,1929.0,-811.0,448.0
-698.0,-2046.0,-772.0,110.0,-4000.0,2056.0,-1050.0,526.0
-1418.0,-1588.0,-401.0,91.0,-4000.0,1456.0,-1332.0,596.0
-2049.0,-502.0,2795.0,64.0,-4000.0,805.0,-1423.0,551.0
-2810.0,1377.0,4000.0,-31.0,-4000.0,628.0,-1423.0,426.0
-1687.0,1831.0,4000.0,-143.0,-4000.0,693.0,-1431.0,137.0
-331.0,2138.0,4000.0,-96.0,-4000.0,660.0,-1201.0,336.0
-65.0,3120.0,-3756.0,-51.0,-4000.0,348.0,-1136.0,847.0
603.0,3504.0,-4000.0,-24.0,-4000.0,35.0,-1058.0,1194.0
1216.0,3062.0,-4000.0,-29.0,-4000.0,-114.0,-1181.0,988.0
1596.0,2338.0,-4000.0,-112.0,-4000.0,34.0,-1249.0,863.0
888.0,1396.0,-4000.0,-136.0,-4000.0,339.0,-1266.0,1207.0
-80.0,-570.0,-4000.0,-141.0,-4000.0,408.0,-1185.0,1026.0
-895.0,-4000.0,-4000.0,-141.0,-4000.0,466.0,-1051.0,784.0
-1152.0,-4000.0,-4000.0,-350.0,-4000.0,492.0,-902.0,676.0
-784.0,-4000.0,1322.0,-446.0,-2912.0,376.0,-917.0,-105.0
-368.0,-4000.0,4000.0,-247.0,-1114.0,195.0,-1054.0,-1438.0
-132.0,-4000.0,4000.0,-152.0,701.0,-72.0,-1006.0,-679.0
342.0,-2530.0,4000.0,-93.0,2491.0,-192.0,-771.0,1399.0
762.0,2078.0,3952.0,-11.0,4000.0,-196.0,-644.0,1020.0
689.0,3443.0,-4000.0,101.0,4000.0,-327.0,-601.0,1334.0
842.0,4000.0,-4000.0,54.0,4000.0,-51.0,-485.0,2354.0
1051.0,4000.0,-4000.0,22.0,4000.0,-108.0,-416.0,2766.0
1051.0,4000.0,-4000.0,137.0,4000.0,-354.0,-294.0,3996.0
603.0,4000.0,-2151.0,139.0,4000.0,19.0,-220.0,4000.0
346.0,4000.0,-1740.0,204.0,4000.0,376.0,-45.0,2872.0
342.0,3452.0,401.0,246.0,4000.0,1071.0,-66.0,1462.0
28.0,2608.0,1936.0,298.0,4000.0,1279.0,-310.0,870.0
-457.0,1803.0,2065.0,352.0,4000.0,896.0,-555.0,479.0
-1300.0,1323.0,526.0,272.0,4000.0,616.0,-882.0,-93.0
-1951.0,1077.0,1127.0,165.0,4000.0,358.0,-861.0,-443.0
-1682.0,1974.0,345.0,105.0,4000.0,203.0,-706.0,-993.0
-1324.0,1843.0,-976.0,-38.0,4000.0,141.0,-846.0,-1319.0
-1305.0,876.0,-4.0,-161.0,4000.0,93.0,-1006.0,-195.0
-1286.0,1634.0,345.0,-276.0,4000.0,-192.0,-933.0,1598.0
-966.0,1323.0,507.0,-397.0,4000.0,-515.0,-837.0,3455.0
-91.0,-1767.0,-64.0,-342.0,4000.0,-907.0,-811.0,4000.0
481.0,-4000.0,-39.0,-326.0,4000.0,-1237.0,-882.0,4000.0
824.0,-4000.0,722.0,-255.0,3281.0,-1396.0,-1113.0,4000.0
1411.0,-4000.0,1627.0,-118.0,3982.0,-1330.0,-1291.0,123.0
1611.0,-3407.0,1704.0,-76.0,3812.0,-1075.0,-1332.0,-2385.0
1634.0,2156.0,1704.0,-65.0,990.0,-920.0,-1136.0,-3256.0
920.0,508.0,1835.0,-87.0,-2741.0,-686.0,-835.0,-2930.0
-807.0,-3265.0,1544.0,-149.0,-4000.0,-358.0,-709.0,-3219.0
-1346.0,-209.0,1426.0,-91.0,-4000.0,-167.0,-772.0,-3462.0
-74.0,1648.0,1029.0,-49.0,-4000.0,-198.0,-620.0,-3284.0
1051.0,2534.0,792.0,-97.0,-2995.0,-180.0,-167.0,-4000.0
456.0,1843.0,460.0,-49.0,-3185.0,-36.0,132.0,-3057.0
-518.0,-476.0,722.0,140.0,-4000.0,185.0,238.0,-2411.0
-957.0,120.0,1184.0,264.0,-4000.0,394.0,73.0,-3113.0
-1072.0,1097.0,467.0,144.0,-4000.0,492.0,-241.0,-1390.0
-470.0,157.0,-265.0,52.0,-4000.0,837.0,-72.0,2354.0
-172.0,-2080.0,-541.0,-21.0,-4000.0,1033.0,376.0,3738.0
101.0,-1717.0,-409.0,0.0,-4000.0,636.0,793.0,4000.0
595.0,-165.0,344.0,167.0,-4000.0,180.0,1248.0,4000.0
495.0,2338.0,638.0,192.0,-4000.0,-468.0,1462.0,4000.0
543.0,4000.0,517.0,99.0,-4000.0,-985.0,1489.0,4000.0
705.0,4000.0,147.0,4.0,-4000.0,-907.0,1602.0,2819.0
418.0,4000.0,-105.0,-76.0,-4000.0,-529.0,1735.0,-1404.0
705.0,4000.0,-24.0,-130.0,-4000.0,506.0,1656.0,-4000.0
595.0,681.0,53.0,-174.0,-4000.0,1189.0,1410.0,-4000.0
379.0,-4000.0,1098.0,-169.0,-4000.0,822.0,1345.0,-4000.0
163.0,-4000.0,4000.0,-241.0,-4000.0,115.0,1324.0,-4000.0
-437.0,-4000.0,4000.0,-316.0,-2995.0,-875.0,1528.0,-4000.0
7.0,-4000.0,1822.0,-250.0,-1689.0,-1422.0,1971.0,-4000.0
576.0,-3554.0,-3160.0,-77.0,-400.0,-1688.0,2232.0,-4000.0
1283.0,-4000.0,-4000.0,81.0,-3001.0,-1753.0,2125.0,-4000.0
1456.0,-2794.0,-4000.0,18.0,-4000.0,-1636.0,1971.0,-4000.0
586.0,-3099.0,-3290.0,-30.0,-4000.0,-1586.0,1984.0,-4000.0
202.0,-1464.0,-2607.0,4.0,-4000.0,-1461.0,1866.0,-4000.0
82.0,-171.0,-1878.0,-45.0,-4000.0,-1617.0,1396.0,-4000.0
-105.0,1683.0,-1655.0,-71.0,-4000.0,-1607.0,506.0,-4000.0
-437.0,2884.0,-1229.0,-45.0,-2757.0,-1604.0,-375.0,-4000.0
-431.0,3309.0,-1150.0,39.0,-2611.0,-1452.0,-1173.0,-4000.0
118.0,2856.0,-863.0,120.0,-2537.0,-1265.0,-2337.0,-3504.0
199.0,1558.0,-220.0,37.0,-2977.0,-1251.0,-3013.0,-803.0
-64.0,1271.0,-88.0,-78.0,-1600.0,-1075.0,-2740.0,465.0
56.0,2156.0,728.0,-66.0,920.0,-945.0,-1944.0,190.0
123.0,3535.0,474.0,-78.0,2972.0,-771.0,-1462.0,-189.0
-61.0,3641.0,671.0,-76.0,4000.0,-630.0,-2015.0,547.0
-125.0,3645.0,748.0,7.0,4000.0,-391.0,-2107.0,686.0
-238.0,2013.0,695.0,11.0,4000.0,-91.0,-1587.0,1456.0
31.0,-300.0,923.0,-33.0,4000.0,214.0,-1583.0,4000.0
399.0,-1932.0,1062.0,-46.0,4000.0,510.0,-1832.0,4000.0
603.0,-2239.0,1068.0,-23.0,4000.0,749.0,-1670.0,4000.0
1105.0,-1546.0,368.0,19.0,4000.0,947.0,-723.0,4000.0
1116.0,-1090.0,170.0,87.0,4000.0,1198.0,6.0,4000.0
1226.0,196.0,-10.0,84.0,4000.0,1508.0,-155.0,4000.0
2067.0,595.0,140.0,7.0,4000.0,1704.0,-516.0,-1046.0
2327.0,1193.0,443.0,-47.0,4000.0,1734.0,-442.0,-4000.0
701.0,2233.0,460.0,-115.0,4000.0,1669.0,480.0,-4000.0
-901.0,2860.0,-320.0,-154.0,4000.0,1656.0,1324.0,-4000.0
-1084.0,3048.0,-505.0,-155.0,4000.0,1604.0,1540.0,-1012.0
-1475.0,2559.0,401.0,-48.0,4000.0,1539.0,1731.0,4000.0
-1365.0,2103.0,590.0,-42.0,4000.0,1462.0,1905.0,4000.0
-569.0,1161.0,508.0,-87.0,4000.0,1340.0,1982.0,4000.0
33.0,-4.0,523.0,-19.0,4000.0,1214.0,2061.0,4000.0
-518.0,-952.0,302.0,-36.0,3837.0,1053.0,2061.0,4000.0
-1149.0,-1322.0,331.0,-85.0,1775.0,902.0,2049.0,4000.0
-1149.0,-1024.0,1053.0,4.0,1148.0,870.0,1825.0,4000.0
-1430.0,-96.0,1888.0,25.0,1213.0,791.0,1344.0,4000.0
-1162.0,134.0,2278.0,10.0,-318.0,636.0,1144.0,4000.0
-266.0,-168.0,576.0,11.0,-4000.0,607.0,684.0,4000.0
318.0,-277.0,-906.0,44.0,-4000.0,563.0,-54.0,2422.0
1026.0,-476.0,-951.0,141.0,-4000.0,368.0,7.0,1012.0
3200.0,-253.0,-1214.0,100.0,-4000.0,237.0,368.0,-398.0
1885.0,-337.0,-1219.0,81.0,-4000.0,41.0,291.0,-2682.0
-1146.0,-686.0,-1349.0,55.0,-4000.0,-113.0,129.0,-3007.0
-2023.0,-946.0,-716.0,93.0,-4000.0,-127.0,132.0,-2016.0
-2505.0,-1025.0,-877.0,94.0,-4000.0,-188.0,604.0,-1644.0
-1260.0,-1025.0,-1655.0,46.0,-1055.0,-362.0,1711.0,-2283.0
-1076.0,-1212.0,-1695.0,18.0,1547.0,-476.0,1656.0,-3253.0
-1023.0,-1290.0,-1237.0,5.0,4000.0,-314.0,802.0,-4000.0
-1345.0,-1441.0,-446.0,114.0,4000.0,-289.0,597.0,-4000.0
-1353.0,-1472.0,-408.0,85.0,4000.0,-521.0,368.0,-4000.0
-714.0,-1387.0,-54.0,16.0,4000.0,-685.0,407.0,-4000.0
-1149.0,-1285.0,361.0,10.0,4000.0,-729.0,485.0,-3112.0
-506.0,-1204.0,374.0,-2.0,4000.0,-672.0,521.0,-1200.0
-515.0,-1135.0,621.0,-36.0,4000.0,-607.0,427.0,-226.0
-1155.0,-1050.0,1249.0,-38.0,4000.0,-737.0,413.0,-543.0
-1837.0,-996.0,1562.0,-29.0,4000.0,-530.0,380.0,-1013.0
-2958.0,-946.0,793.0,-115.0,4000.0,-151.0,-287.0,-2004.0
-2891.0,-822.0,180.0,-127.0,4000.0,-232.0,-774.0,-2849.0
-1156.0,-665.0,-409.0,-69.0,4000.0,-149.0,-680.0,-2441.0
109.0,-551.0,-645.0,-29.0,4000.0,-26.0,-664.0,-1904.0
1766.0,-398.0,-328.0,12.0,4000.0,-51.0,-615.0,-1515.0
3916.0,-208.0,50.0,45.0,2485.0,-94.0,-672.0,-1148.0
4000.0,-19.0,21.0,65.0,-862.0,-65.0,-882.0,-1339.0
3443.0,5.0,-759.0,26.0,-3327.0,2.0,-1063.0,-1579.0
2809.0,134.0,-416.0,60.0,-4000.0,-47.0,-1374.0,-1518.0
2222.0,268.0,450.0,144.0,-4000.0,-137.0,-1201.0,-936.0
1348.0,305.0,268.0,130.0,-4000.0,-78.0,-1227.0,-200.0
618.0,485.0,-30.0,131.0,-4000.0,27.0,-1488.0,-7.0
-79.0,477.0,266.0,128.0,-4000.0,118.0,-1332.0,-50.0
-866.0,189.0,149.0,124.0,-4000.0,256.0,-1057.0,100.0
-150.0,-71.0,-275.0,99.0,-4000.0,217.0,-790.0,406.0
758.0,-255.0,85.0,59.0,-4000.0,165.0,-621.0,404.0
-150.0,-264.0,408.0,34.0,-4000.0,183.0,-644.0,106.0
-1025.0,-222.0,360.0,31.0,-4000.0,15.0,-750.0,-137.0
-915.0,-271.0,217.0,100.0,-4000.0,-123.0,-707.0,-301.0
-1206.0,-92.0,611.0,53.0,-4000.0,-73.0,-613.0,-517.0
-4000.0,85.0,598.0,49.0,-4000.0,-32.0,-522.0,-572.0
-4000.0,256.0,92.0,144.0,-4000.0,-45.0,-378.0,-401.0
-3360.0,333.0,321.0,183.0,-4000.0,-102.0,-159.0,-391.0
4000.0,359.0,341.0,158.0,-4000.0,-116.0,129.0,-362.0
4000.0,511.0,217.0,160.0,-4000.0,2.0,297.0,-240.0
3761.0,631.0,-407.0,170.0,-4000.0,94.0,481.0,-315.0
473.0,615.0,-580.0,133.0,-4000.0,149.0,643.0,-411.0
2777.0,527.0,-147.0,181.0,-4000.0,168.0,812.0,-788.0
3562.0,582.0,-154.0,77.0,-4000.0,191.0,809.0,-1235.0
2663.0,666.0,-440.0,-438.0,-4000.0,278.0,637.0,-1540.0
790.0,737.0,-768.0,-654.0,-4000.0,309.0,616.0,-2024.0
-2761.0,663.0,-450.0,-414.0,-2496.0,333.0,538.0,-2460.0
-1585.0,464.0,-111.0,-299.0,-1514.0,392.0,309.0,-2959.0
305.0,359.0,-104.0,-194.0,-2209.0,506.0,70.0,-3333.0
2549.0,331.0,-67.0,-121.0,-4000.0,576.0,-527.0,-3523.0
3460.0,512.0,24.0,-155.0,-4000.0,596.0,-1189.0,-3397.0
3175.0,644.0,98.0,-228.0,-4000.0,506.0,-550.0,-2747.0
2092.0,587.0,165.0,-266.0,-4000.0,254.0,878.0,-2086.0
433.0,512.0,246.0,-182.0,-4000.0,35.0,1475.0,-1578.0
-54.0,346.0,154.0,-148.0,-4000.0,-92.0,1510.0,-1103.0
-388.0,347.0,-67.0,-200.0,-4000.0,-57.0,903.0,-448.0
-1045.0,404.0,-103.0,-208.0,-4000.0,-110.0,-555.0,402.0
-1732.0,305.0,-29.0,-141.0,-4000.0,-200.0,-902.0,1122.0
-1487.0,216.0,59.0,-72.0,-4000.0,-107.0,604.0,2154.0
-1459.0,28.0,111.0,5.0,-4000.0,-30.0,1605.0,3096.0
-1430.0,-118.0,29.0,69.0,-4000.0,-50.0,995.0,3340.0
-1046.0,-171.0,35.0,59.0,-4000.0,-179.0,213.0,3356.0
-828.0,-277.0,-6.0,56.0,-4000.0,-198.0,-100.0,3390.0
-712.0,-287.0,-8.0,77.0,-4000.0,130.0,-373.0,3458.0
-714.0,-318.0,21.0,69.0,-4000.0,404.0,-63.0,3469.0
-1280.0,-346.0,-14.0,30.0,-3929.0,504.0,-48.0,3390.0
-1977.0,-399.0,-79.0,18.0,-2387.0,701.0,-261.0,3263.0
-1950.0,-460.0,-149.0,-7.0,-677.0,411.0,-139.0,3144.0
-1430.0,-391.0,-150.0,-11.0,522.0,-211.0,-233.0,3002.0
-628.0,-326.0,-132.0,40.0,2383.0,-581.0,-139.0,2901.0
21.0,-264.0,-97.0,69.0,3725.0,-707.0,-258.0,2804.0
18.0,-267.0,-82.0,69.0,4000.0,-521.0,-680.0,2498.0
-105.0,-228.0,-67.0,49.0,4000.0,-611.0,-933.0,2377.0
70.0,-165.0,47.0,22.0,4000.0,-855.0,-599.0,2445.0
342.0,-149.0,231.0,-14.0,4000.0,-923.0,-104.0,2419.0
171.0,-129.0,345.0,12.0,4000.0,-861.0,-53.0,2313.0
30.0,-87.0,373.0,67.0,4000.0,-906.0,139.0,2183.0
269.0,-89.0,246.0,110.0,4000.0,-1226.0,539.0,1989.0
202.0,-115.0,187.0,229.0,4000.0,-1452.0,750.0,1698.0
192.0,-88.0,190.0,320.0,4000.0,-1434.0,968.0,1334.0
291.0,-11.0,199.0,335.0,4000.0,-1177.0,1345.0,921.0
489.0,90.0,215.0,329.0,4000.0,-663.0,1605.0,424.0
538.0,69.0,157.0,317.0,4000.0,-29.0,2225.0,-70.0
660.0,30.0,175.0,223.0,4000.0,576.0,2552.0,-352.0
300.0,130.0,119.0,146.0,4000.0,1179.0,2429.0,-514.0
-3695.0,248.0,63.0,139.0,4000.0,1852.0,2322.0,-618.0
-4000.0,305.0,-26.0,150.0,4000.0,2319.0,2647.0,-710.0
-3115.0,374.0,-221.0,115.0,4000.0,2190.0,3075.0,-818.0
3070.0,460.0,-228.0,68.0,4000.0,1852.0,2647.0,-759.0
4000.0,460.0,-242.0,-75.0,4000.0,1775.0,2941.0,-776.0
4000.0,459.0,-314.0,-332.0,4000.0,1824.0,2582.0,-974.0
3951.0,381.0,-226.0,-409.0,4000.0,1547.0,2049.0,-1061.0
2715.0,319.0,-220.0,-409.0,4000.0,1051.0,1475.0,-1135.0
1375.0,327.0,-247.0,-474.0,4000.0,701.0,391.0,-1111.0
660.0,343.0,-116.0,-450.0,4000.0,817.0,962.0,-744.0
269.0,363.0,-74.0,-365.0,4000.0,986.0,1843.0,-325.0
-323.0,388.0,-128.0,-357.0,4000.0,1142.0,1797.0,-240.0
-470.0,446.0,-122.0,-377.0,4000.0,1352.0,838.0,-753.0
-844.0,483.0,-6.0,-393.0,4000.0,1409.0,-575.0,-1111.0
-932.0,485.0,243.0,-346.0,4000.0,1409.0,-1917.0,-1324.0
-1175.0,449.0,315.0,-220.0,4000.0,1148.0,-2622.0,-1632.0
-941.0,382.0,458.0,-149.0,4000.0,742.0,-3082.0,-1723.0
-608.0,347.0,988.0,-111.0,4000.0,81.0,-3311.0,-2004.0
-422.0,359.0,368.0,-43.0,4000.0,-336.0,-3472.0,-2230.0
-569.0,307.0,-682.0,65.0,3668.0,-521.0,-4000.0,-2406.0
-523.0,225.0,-537.0,131.0,3707.0,-548.0,-3882.0,-2651.0
-404.0,130.0,-17.0,167.0,3037.0,-548.0,-3816.0,-2959.0
-637.0,-6.0,728.0,187.0,1995.0,-750.0,-3171.0,-3333.0
-1552.0,-149.0,654.0,168.0,1669.0,-712.0,-3445.0,-3655.0
-2096.0,-218.0,-40.0,139.0,2646.0,-571.0,-4000.0,-3773.0
-69.0,-53.0,-548.0,132.0,3541.0,-464.0,-4000.0,-3824.0
1246.0,-35.0,-625.0,97.0,3167.0,-327.0,-3407.0,-3760.0
1515.0,-92.0,-282.0,81.0,3410.0,-56.0,-3326.0,-3462.0
1429.0,-104.0,-421.0,77.0,3493.0,100.0,-3407.0,-2876.0
-228.0,-122.0,-275.0,69.0,2243.0,99.0,-2805.0,-2415.0
-2010.0,-111.0,-11.0,85.0,141.0,51.0,-2055.0,-1957.0
-2320.0,-177.0,-82.0,59.0,-1310.0,-373.0,-1488.0,-643.0
-181.0,-166.0,-147.0,51.0,-2550.0,-1032.0,-1006.0,276.0
1051.0,-175.0,-343.0,16.0,-3905.0,-1437.0,-587.0,159.0
1937.0,-188.0,-384.0,28.0,-4000.0,-1316.0,2.0,576.0
2597.0,-169.0,-119.0,77.0,-4000.0,-1005.0,176.0,499.0
1755.0,-174.0,-78.0,77.0,-3728.0,-576.0,103.0,-267.0
1319.0,-214.0,-57.0,55.0,-4000.0,-10.0,315.0,-948.0
495.0,-248.0,77.0,-5.0,-4000.0,278.0,319.0,-997.0
-234.0,-224.0,20.0,-13.0,-4000.0,627.0,172.0,-875.0
-1011.0,-202.0,95.0,-9.0,-4000.0,896.0,-140.0,-692.0
-1621.0,-179.0,75.0,-25.0,-2866.0,1258.0,-359.0,-291.0
-1416.0,-169.0,45.0,1.0,-1898.0,1703.0,529.0,8.0
-419.0,-154.0,93.0,-6.0,-1170.0,1769.0,1489.0,1020.0
277.0,-158.0,145.0,31.0,-967.0,1590.0,1076.0,1183.0
346.0,-163.0,334.0,59.0,-256.0,1148.0,228.0,1468.0
416.0,-157.0,630.0,-19.0,-140.0,544.0,-260.0,1688.0
137.0,-188.0,923.0,-68.0,43.0,-293.0,-489.0,1912.0
-5.0,-241.0,1094.0,-110.0,58.0,-1422.0,-355.0,2369.0
-383.0,-236.0,1509.0,-128.0,-577.0,-2839.0,-239.0,2283.0
-432.0,-166.0,2395.0,-131.0,-1077.0,-4000.0,-253.0,2510.0
-404.0,-118.0,2264.0,-112.0,-1731.0,-4000.0,-39.0,2416.0
-413.0,-132.0,202.0,-90.0,-2856.0,-4000.0,-332.0,2225.0
-706.0,-169.0,-1846.0,-92.0,-3836.0,-4000.0,-620.0,1986.0
-616.0,-118.0,-2822.0,-73.0,-4000.0,-2386.0,-607.0,1912.0
543.0,-163.0,-2692.0,-68.0,-4000.0,394.0,-678.0,1846.0
847.0,-224.0,-1602.0,-25.0,-2870.0,2319.0,-507.0,1859.0
760.0,-179.0,-408.0,-14.0,-1249.0,3214.0,-399.0,1789.0
24.0,-227.0,-153.0,15.0,237.0,2694.0,-154.0,1793.0
-441.0,-244.0,-997.0,77.0,815.0,988.0,93.0,2624.0
-136.0,-195.0,-1557.0,56.0,-213.0,-651.0,349.0,2948.0
-279.0,-108.0,-1581.0,56.0,-2270.0,-1794.0,550.0,3067.0
109.0,-62.0,-1035.0,72.0,-4000.0,-1961.0,563.0,2624.0
-60.0,-55.0,-507.0,75.0,-4000.0,-1896.0,702.0,1859.0
-539.0,-51.0,-47.0,91.0,-4000.0,-1850.0,888.0,1063.0
-763.0,-26.0,272.0,60.0,-4000.0,-1701.0,1255.0,-881.0
-163.0,-8.0,364.0,25.0,-4000.0,-1915.0,1446.0,-2682.0
660.0,-66.0,288.0,-6.0,-4000.0,-2248.0,1280.0,-3462.0
689.0,-102.0,33.0,-34.0,-4000.0,-2300.0,1141.0,-3708.0
888.0,-77.0,211.0,-36.0,-4000.0,-2221.0,1164.0,-4000.0
340.0,30.0,1184.0,-26.0,-4000.0,-2268.0,1223.0,-4000.0
-238.0,85.0,3885.0,-76.0,-4000.0,-2313.0,934.0,-2478.0
-589.0,79.0,4000.0,-82.0,-4000.0,-2367.0,248.0,751.0
-534.0,46.0,4000.0,-45.0,-4000.0,-2235.0,-100.0,2742.0
-706.0,18.0,-47.0,-22.0,-2741.0,-1883.0,348.0,4000.0
-844.0,47.0,-3546.0,-9.0,2441.0,-1489.0,812.0,4000.0
-886.0,58.0,-3717.0,-4.0,4000.0,-1010.0,445.0,4000.0
-880.0,51.0,-2940.0,-44.0,4000.0,-686.0,331.0,3535.0
-242.0,150.0,-2009.0,-93.0,4000.0,-507.0,765.0,743.0
-216.0,254.0,-401.0,-120.0,4000.0,-276.0,409.0,-3024.0
110.0,167.0,1561.0,-120.0,3334.0,-13.0,394.0,-4000.0
269.0,79.0,1348.0,-38.0,4000.0,77.0,548.0,-4000.0
241.0,55.0,-820.0,-20.0,3657.0,-116.0,-67.0,-4000.0
760.0,34.0,-1864.0,59.0,4000.0,-297.0,303.0,-4000.0
1485.0,-7.0,-1811.0,164.0,4000.0,-159.0,416.0,-3935.0
1569.0,-44.0,-1520.0,142.0,4000.0,203.0,336.0,-638.0
1791.0,-8.0,-1618.0,161.0,4000.0,636.0,1098.0,629.0
1832.0,20.0,-568.0,102.0,4000.0,1214.0,962.0,1241.0
408.0,-10.0,2027.0,125.0,4000.0,1864.0,930.0,1762.0
-396.0,-26.0,4000.0,152.0,4000.0,2629.0,1255.0,2445.0
-757.0,12.0,2159.0,75.0,4000.0,3280.0,1645.0,3976.0
-936.0,14.0,-1101.0,-45.0,4000.0,3865.0,1923.0,4000.0
-1110.0,34.0,-1701.0,-239.0,4000.0,4000.0,2036.0,4000.0
-1201.0,134.0,-1980.0,-290.0,4000.0,4000.0,2387.0,4000.0
-473.0,217.0,-1231.0,-260.0,4000.0,3980.0,2125.0,4000.0
587.0,238.0,-546.0,-251.0,4000.0,3018.0,1866.0,4000.0
705.0,213.0,-102.0,-216.0,4000.0,2124.0,1704.0,2354.0
375.0,152.0,205.0,-250.0,4000.0,1604.0,1591.0,550.0
493.0,94.0,217.0,-253.0,4000.0,1258.0,1735.0,-2931.0
-523.0,-2.0,1664.0,-190.0,3006.0,1214.0,1628.0,-4000.0
-208.0,-78.0,4000.0,-10.0,2060.0,1083.0,1184.0,-4000.0
627.0,-80.0,4000.0,102.0,1579.0,628.0,995.0,-4000.0
745.0,-102.0,1127.0,95.0,1482.0,439.0,1084.0,-4000.0
514.0,-88.0,931.0,73.0,1786.0,376.0,857.0,-4000.0
-974.0,-52.0,374.0,25.0,1574.0,341.0,510.0,-4000.0
-2011.0,-53.0,-1917.0,-5.0,570.0,319.0,195.0,-3452.0
-1305.0,-38.0,-2916.0,-102.0,683.0,35.0,259.0,-809.0
-165.0,37.0,-2639.0,-23.0,562.0,-68.0,409.0,-1037.0
-12.0,36.0,-698.0,170.0,-1653.0,-27.0,329.0,751.0
214.0,-4.0,3885.0,301.0,-4000.0,-219.0,469.0,654.0
325.0,83.0,4000.0,402.0,-4000.0,-409.0,498.0,324.0
357.0,138.0,-488.0,451.0,-1588.0,-706.0,394.0,522.0
435.0,98.0,-3485.0,442.0,-2250.0,-1010.0,238.0,620.0
45.0,40.0,-2253.0,191.0,-1012.0,-1180.0,124.0,1763.0
-266.0,-114.0,-123.0,-17.0,1775.0,-1440.0,104.0,3593.0
-327.0,-267.0,-545.0,-49.0,2320.0,-2061.0,20.0,4000.0
-33.0,-220.0,-4000.0,-148.0,2683.0,-2481.0,-9.0,3983.0
465.0,-178.0,-4000.0,-109.0,-327.0,-2403.0,-104.0,4000.0
782.0,-205.0,-2721.0,54.0,-4000.0,-2274.0,-255.0,4000.0
-13.0,-249.0,-937.0,-18.0,-4000.0,-2092.0,-143.0,4000.0
-1039.0,-204.0,-30.0,-188.0,-4000.0,-1961.0,-11.0,4000.0
7.0,-172.0,-315.0,-276.0,-4000.0,-1729.0,-121.0,4000.0
1677.0,-181.0,-422.0,-332.0,-1849.0,-1422.0,-59.0,3275.0
1791.0,-114.0,-144.0,-263.0,2383.0,-867.0,54.0,283.0
433.0,-154.0,524.0,-152.0,4000.0,-222.0,-43.0,0.0
-510.0,-127.0,866.0,-69.0,4000.0,80.0,-151.0,-2309.0
-610.0,-99.0,914.0,60.0,2972.0,109.0,-313.0,-4000.0
-974.0,-77.0,1104.0,125.0,3346.0,-206.0,-371.0,-4000.0
-1096.0,-37.0,2130.0,236.0,4000.0,-419.0,-167.0,-4000.0
-566.0,-27.0,1639.0,334.0,4000.0,-615.0,-28.0,-3219.0
30.0,14.0,556.0,322.0,4000.0,-703.0,-124.0,-599.0
530.0,51.0,253.0,286.0,4000.0,-521.0,-318.0,3586.0
660.0,117.0,177.0,179.0,4000.0,-415.0,-359.0,4000.0
798.0,122.0,318.0,-18.0,4000.0,-282.0,-399.0,4000.0
1611.0,105.0,178.0,-124.0,4000.0,-283.0,-394.0,4000.0
1311.0,160.0,336.0,-107.0,4000.0,-272.0,-290.0,4000.0
1110.0,266.0,748.0,-10.0,4000.0,18.0,-500.0,1183.0
574.0,200.0,1249.0,263.0,4000.0,402.0,-680.0,-4000.0
-437.0,129.0,1184.0,508.0,4000.0,544.0,-658.0,-4000.0
-284.0,120.0,828.0,622.0,4000.0,680.0,-550.0,-4000.0
-784.0,55.0,728.0,628.0,4000.0,687.0,-583.0,-4000.0
-1016.0,10.0,741.0,499.0,4000.0,622.0,-646.0,-4000.0
-1305.0,-101.0,923.0,229.0,1201.0,738.0,-534.0,876.0
-1885.0,-97.0,1237.0,-93.0,-1802.0,823.0,-620.0,2354.0
-2254.0,-88.0,1282.0,-255.0,-4000.0,929.0,-855.0,2159.0
-2256.0,-86.0,801.0,-498.0,-4000.0,1033.0,-1011.0,2498.0
-1546.0,5.0,152.0,-669.0,-4000.0,1315.0,-1030.0,2575.0
-974.0,65.0,-465.0,-637.0,-4000.0,1710.0,-1032.0,3552.0
-1105.0,98.0,-776.0,-807.0,-4000.0,2060.0,-998.0,2689.0
-1022.0,55.0,-898.0,-877.0,-4000.0,2377.0,-781.0,2054.0
-352.0,-43.0,-887.0,-527.0,-4000.0,2629.0,-652.0,1118.0
67.0,-22.0,-645.0,-93.0,-4000.0,2775.0,-644.0,528.0
648.0,-13.0,-536.0,-14.0,-4000.0,2840.0,-733.0,239.0
1026.0,-49.0,-541.0,-206.0,-4000.0,2878.0,-678.0,-327.0
1348.0,-27.0,-98.0,-220.0,-4000.0,2812.0,-620.0,-523.0
1051.0,-35.0,354.0,-285.0,-4000.0,2629.0,-595.0,-883.0
699.0,-7.0,431.0,-327.0,-4000.0,2373.0,-587.0,-714.0
777.0,30.0,290.0,-364.0,-4000.0,2189.0,-716.0,-692.0
635.0,47.0,298.0,-160.0,-4000.0,1917.0,-768.0,-401.0
782.0,59.0,402.0,-71.0,-4000.0,1601.0,-862.0,-490.0
673.0,45.0,332.0,-424.0,-4000.0,1377.0,-917.0,-779.0
668.0,27.0,567.0,-421.0,-4000.0,1148.0,-946.0,-997.0
733.0,26.0,801.0,-940.0,-4000.0,961.0,-973.0,-1123.0
842.0,68.0,459.0,-1077.0,-4000.0,745.0,-940.0,-1078.0
844.0,12.0,-187.0,-213.0,-4000.0,463.0,-709.0,-1404.0
701.0,-36.0,-869.0,675.0,-4000.0,79.0,-458.0,-1469.0
586.0,-6.0,-1339.0,1509.0,-2578.0,-237.0,-294.0,-1511.0
433.0,-12.0,-1476.0,1480.0,660.0,-406.0,-40.0,-1339.0
563.0,14.0,-1166.0,1509.0,4000.0,-428.0,24.0,-1078.0
543.0,5.0,-799.0,2193.0,4000.0,-293.0,1.0,-718.0
444.0,-21.0,-743.0,1748.0,4000.0,-350.0,48.0,-152.0
477.0,-20.0,-242.0,493.0,4000.0,-409.0,30.0,456.0
209.0,-5.0,172.0,-518.0,4000.0,29.0,-159.0,1045.0
-311.0,16.0,642.0,-1610.0,4000.0,673.0,-394.0,1403.0
-549.0,-9.0,754.0,-2093.0,4000.0,944.0,-359.0,1728.0
-523.0,-13.0,-224.0,-2585.0,4000.0,1134.0,-235.0,2054.0
-637.0,12.0,-976.0,-3483.0,4000.0,1604.0,-266.0,2884.0
-775.0,-6.0,-1492.0,-2632.0,4000.0,1898.0,-363.0,4000.0
-973.0,-28.0,-1414.0,-308.0,2825.0,1669.0,-620.0,4000.0
-1170.0,-43.0,-892.0,1291.0,-4000.0,1666.0,-1011.0,3195.0
-1292.0,-64.0,-380.0,1892.0,-4000.0,1417.0,-1397.0,991.0
-1365.0,-48.0,-67.0,2478.0,-4000.0,713.0,-1454.0,707.0
-1000.0,-26.0,-113.0,2452.0,-4000.0,233.0,-1011.0,1156.0
-392.0,-6.0,-170.0,1037.0,-4000.0,-47.0,-304.0,1248.0
-42.0,98.0,-389.0,-15.0,-4000.0,-63.0,349.0,1595.0
373.0,217.0,-450.0,116.0,-4000.0,491.0,402.0,1698.0
647.0,256.0,-362.0,1215.0,-4000.0,1214.0,10.0,1541.0
798.0,207.0,135.0,1422.0,-2419.0,1704.0,-241.0,1334.0
782.0,50.0,585.0,-462.0,4000.0,2385.0,203.0,955.0
608.0,-38.0,793.0,-1787.0,4000.0,2939.0,613.0,450.0
556.0,-35.0,850.0,-1819.0,4000.0,2375.0,301.0,-341.0
391.0,-52.0,669.0,-2184.0,4000.0,1824.0,69.0,-936.0
370.0,55.0,497.0,-3038.0,4000.0,1269.0,498.0,-1396.0
277.0,327.0,111.0,-3250.0,4000.0,716.0,1137.0,-1829.0
196.0,256.0,96.0,-1571.0,4000.0,1006.0,1313.0,-2425.0
134.0,-125.0,498.0,169.0,4000.0,1071.0,1149.0,-3517.0
147.0,-253.0,771.0,-166.0,4000.0,778.0,725.0,-4000.0
139.0,-334.0,597.0,-532.0,4000.0,25.0,481.0,-4000.0
43.0,-220.0,476.0,54.0,4000.0,-966.0,470.0,-4000.0
52.0,-78.0,321.0,799.0,4000.0,-1330.0,-113.0,-4000.0
97.0,-70.0,215.0,923.0,4000.0,-1396.0,-1042.0,-4000.0
210.0,-50.0,284.0,974.0,4000.0,-2221.0,-941.0,-4000.0
159.0,-286.0,394.0,687.0,4000.0,-3323.0,-108.0,-4000.0
101.0,-294.0,511.0,-328.0,4000.0,-3901.0,386.0,-4000.0
-6.0,-270.0,158.0,-287.0,4000.0,-4000.0,1208.0,-3773.0
-53.0,-287.0,-336.0,207.0,4000.0,-4000.0,1602.0,-2601.0
-17.0,-118.0,-466.0,684.0,3127.0,-4000.0,1158.0,-1455.0
14.0,31.0,-578.0,1015.0,-140.0,-4000.0,1337.0,-914.0
-62.0,136.0,-716.0,891.0,-2400.0,-3799.0,1341.0,-692.0
-300.0,116.0,-734.0,965.0,-3001.0,-3659.0,753.0,-29.0
-274.0,162.0,-1171.0,1184.0,-3521.0,-3364.0,989.0,606.0
-77.0,260.0,-1292.0,1175.0,-4000.0,-3583.0,946.0,816.0
-43.0,282.0,-727.0,1169.0,-4000.0,-4000.0,693.0,1663.0
-331.0,294.0,-358.0,864.0,-4000.0,-3684.0,759.0,2819.0
-417.0,359.0,-450.0,613.0,-1489.0,-3128.0,368.0,3275.0
-396.0,326.0,-248.0,903.0,-123.0,-2707.0,921.0,3356.0
-386.0,229.0,163.0,465.0,1118.0,-2510.0,1129.0,3260.0
-313.0,179.0,814.0,99.0,1669.0,-2534.0,506.0,3340.0
-433.0,164.0,1639.0,-124.0,1134.0,-2092.0,188.0,4000.0
-489.0,195.0,671.0,-312.0,-421.0,-1103.0,563.0,4000.0
-365.0,176.0,-580.0,310.0,-3539.0,-2.0,1267.0,3700.0
-162.0,162.0,-419.0,226.0,-4000.0,620.0,1280.0,1892.0
-170.0,37.0,28.0,-230.0,-4000.0,1134.0,1019.0,-248.0
-138.0,-76.0,225.0,-315.0,-4000.0,1214.0,364.0,-1891.0
-110.0,-141.0,-28.0,-262.0,-4000.0,1604.0,-811.0,-2448.0
-132.0,-150.0,-401.0,12.0,-4000.0,2125.0,-1507.0,-1924.0
-19.0,-31.0,-283.0,301.0,-4000.0,2124.0,-678.0,-1495.0
-29.0,58.0,254.0,422.0,-4000.0,2177.0,335.0,-1055.0
-49.0,-32.0,899.0,458.0,-4000.0,2447.0,858.0,-545.0
-25.0,-179.0,1104.0,400.0,-4000.0,2905.0,988.0,-257.0
3.0,-287.0,1127.0,310.0,-4000.0,2759.0,867.0,-70.0
-42.0,-306.0,1387.0,316.0,-4000.0,2577.0,1137.0,58.0
-116.0,-196.0,911.0,182.0,-4000.0,2084.0,684.0,83.0
-25.0,-176.0,175.0,116.0,-4000.0,1722.0,871.0,107.0
125.0,-105.0,-159.0,75.0,-4000.0,1266.0,1670.0,247.0
165.0,-102.0,-328.0,-1.0,-4000.0,583.0,1705.0,44.0
211.0,-143.0,-84.0,-67.0,-4000.0,276.0,1602.0,23.0
235.0,-168.0,280.0,-126.0,-4000.0,-287.0,1214.0,116.0
195.0,-179.0,751.0,-184.0,-4000.0,-997.0,96.0,-72.0
267.0,-83.0,2418.0,-311.0,-4000.0,-1511.0,-1917.0,-245.0
298.0,-89.0,3974.0,-273.0,-4000.0,-1506.0,-3212.0,-488.0
238.0,-83.0,1306.0,-162.0,-3446.0,-1257.0,-3603.0,-675.0
108.0,-48.0,-1635.0,-148.0,-1589.0,-988.0,-3249.0,-630.0
42.0,24.0,-1602.0,-246.0,-44.0,-810.0,-485.0,-17.0
17.0,37.0,-1127.0,-332.0,1352.0,-354.0,954.0,1112.0
8.0,11.0,-515.0,-397.0,2907.0,16.0,-1448.0,2313.0
45.0,66.0,-1024.0,-442.0,4000.0,233.0,-2223.0,3079.0
-26.0,82.0,-1078.0,-488.0,4000.0,492.0,328.0,3404.0
35.0,110.0,-1476.0,-645.0,4000.0,303.0,2226.0,3469.0
149.0,140.0,-2542.0,-768.0,4000.0,603.0,745.0,3458.0
54.0,227.0,-3030.0,-979.0,4000.0,1352.0,-320.0,3356.0
-11.0,294.0,-2806.0,-1303.0,4000.0,1734.0,-275.0,2883.0
-69.0,294.0,-2094.0,-1435.0,4000.0,2240.0,-2064.0,1964.0
-146.0,345.0,-1279.0,-1610.0,4000.0,2124.0,-1767.0,634.0
-78.0,418.0,-739.0,-1839.0,4000.0,2442.0,812.0,-883.0
112.0,460.0,-1069.0,-1557.0,4000.0,2940.0,1092.0,-2165.0
342.0,448.0,9.0,-1238.0,4000.0,2971.0,-722.0,-2941.0
397.0,355.0,-416.0,-950.0,4000.0,2775.0,-929.0,-3219.0
306.0,270.0,-2094.0,-576.0,4000.0,1734.0,-5.0,-3988.0
214.0,142.0,-2169.0,-466.0,3787.0,1982.0,1184.0,-4000.0
93.0,-37.0,-490.0,-101.0,3102.0,2084.0,2061.0,-4000.0
-47.0,-208.0,1184.0,458.0,2630.0,1352.0,2191.0,-3001.0
446.0,-338.0,1822.0,858.0,887.0,1163.0,942.0,-862.0
825.0,-363.0,2135.0,1163.0,-2931.0,1157.0,114.0,1000.0
162.0,-351.0,1614.0,1500.0,-4000.0,1006.0,-138.0,2966.0
-392.0,-328.0,879.0,1866.0,-4000.0,750.0,-385.0,4000.0
-821.0,-293.0,-1471.0,2151.0,-4000.0,152.0,-741.0,4000.0
-844.0,-275.0,-2940.0,2140.0,-3445.0,-645.0,-2734.0,4000.0
-569.0,-304.0,-315.0,2010.0,-2289.0,-1526.0,-3924.0,4000.0
-384.0,-286.0,2266.0,2022.0,-598.0,-2416.0,-2577.0,3600.0
-88.0,-258.0,2848.0,1552.0,1313.0,-2510.0,303.0,2479.0
-120.0,-135.0,2876.0,1175.0,3102.0,-2504.0,1084.0,2856.0
122.0,-18.0,1900.0,821.0,4000.0,-2608.0,-156.0,2689.0
257.0,31.0,1387.0,155.0,4000.0,-2712.0,-839.0,550.0
318.0,122.0,1098.0,-255.0,4000.0,-2867.0,-585.0,-1404.0
435.0,70.0,1197.0,-789.0,4000.0,-3123.0,-312.0,-2893.0
203.0,73.0,1192.0,-1411.0,4000.0,-3600.0,32.0,-4000.0
-31.0,70.0,625.0,-2195.0,3037.0,-3657.0,-15.0,-3740.0
-208.0,48.0,-7.0,-1890.0,2057.0,-3375.0,119.0,-1013.0
-309.0,77.0,-1143.0,-183.0,1601.0,-3494.0,445.0,882.0
-228.0,52.0,-2057.0,190.0,1547.0,-2998.0,700.0,564.0
-135.0,69.0,-4000.0,60.0,1344.0,-2102.0,628.0,-1143.0
-118.0,36.0,-4000.0,287.0,602.0,-1915.0,180.0,-1891.0
-274.0,44.0,-3083.0,42.0,-326.0,-1717.0,67.0,-2100.0
-482.0,84.0,-68.0,13.0,-1359.0,-1107.0,22.0,-1607.0
-416.0,106.0,3371.0,123.0,-2354.0,-789.0,112.0,-378.0
-343.0,116.0,4000.0,515.0,-2859.0,-816.0,233.0,413.0
-146.0,50.0,4000.0,752.0,-3327.0,-790.0,416.0,742.0
70.0,46.0,1224.0,929.0,-3444.0,-1070.0,237.0,503.0
149.0,68.0,-2021.0,858.0,-3237.0,-1248.0,-29.0,409.0
192.0,46.0,-1297.0,504.0,-2692.0,-1070.0,-214.0,360.0
31.0,28.0,2389.0,613.0,-2231.0,-771.0,-109.0,239.0
-111.0,-18.0,4000.0,373.0,-1649.0,-511.0,619.0,-182.0
24.0,-21.0,4000.0,-287.0,-1043.0,-200.0,903.0,-508.0
69.0,-4.0,3757.0,-875.0,-912.0,331.0,1033.0,-397.0
168.0,-14.0,-3368.0,-1435.0,-246.0,498.0,790.0,-362.0
303.0,-6.0,-4000.0,-1492.0,141.0,628.0,329.0,-411.0
257.0,-26.0,-743.0,-1044.0,725.0,749.0,745.0,-280.0
342.0,-9.0,2746.0,-1135.0,1140.0,766.0,1467.0,212.0
251.0,22.0,4000.0,-1174.0,1417.0,988.0,1967.0,293.0
150.0,-4.0,4000.0,-830.0,2231.0,1445.0,2061.0,146.0
-51.0,9.0,3202.0,-430.0,2569.0,1604.0,1931.0,49.0
-238.0,-7.0,519.0,-76.0,3072.0,1508.0,1593.0,43.0
-46.0,-25.0,-1638.0,-104.0,3399.0,1573.0,877.0,-54.0
-89.0,-14.0,-3030.0,-50.0,3772.0,1395.0,143.0,-95.0
-331.0,-30.0,-3018.0,-15.0,4000.0,1207.0,-448.0,-34.0
-483.0,-47.0,-1492.0,-450.0,4000.0,1083.0,-403.0,-27.0
-303.0,-69.0,-1214.0,-604.0,4000.0,921.0,-255.0,108.0
-39.0,-64.0,-1992.0,-364.0,4000.0,815.0,-324.0,-64.0
-121.0,-52.0,-2092.0,-263.0,4000.0,683.0,-519.0,-105.0
-258.0,-88.0,-2124.0,433.0,4000.0,623.0,-917.0,-127.0
-428.0,-49.0,-2147.0,1306.0,4000.0,490.0,-946.0,-69.0
-571.0,7.0,-1602.0,1314.0,4000.0,433.0,-489.0,104.0
-523.0,-26.0,-971.0,1037.0,3916.0,376.0,-226.0,145.0
-339.0,-22.0,-906.0,949.0,4000.0,325.0,-510.0,130.0
-190.0,-34.0,-1237.0,1080.0,4000.0,386.0,-836.0,13.0
-248.0,-72.0,-1478.0,1285.0,4000.0,351.0,-1184.0,37.0
-177.0,-64.0,-1655.0,258.0,3859.0,276.0,-1507.0,24.0
199.0,-29.0,-1655.0,-1477.0,3744.0,199.0,-1684.0,6.0
543.0,-52.0,-1581.0,-1160.0,3493.0,65.0,-1636.0,-38.0
627.0,-128.0,-1427.0,-1222.0,3102.0,-169.0,-1397.0,-97.0
495.0,-101.0,-1279.0,-1709.0,2503.0,-313.0,-1514.0,-96.0
538.0,-30.0,-886.0,-1146.0,2085.0,-383.0,-1571.0,-74.0
719.0,-30.0,-515.0,-1125.0,1785.0,-436.0,-1435.0,-68.0
412.0,-60.0,-515.0,-625.0,1539.0,-463.0,-1197.0,-105.0
182.0,-82.0,-645.0,-885.0,1328.0,-476.0,-794.0,-30.0
-515.0,-63.0,-833.0,-1109.0,1279.0,-440.0,-750.0,22.0
-979.0,45.0,-741.0,-565.0,1222.0,-442.0,-762.0,117.0
82.0,156.0,-601.0,-408.0,876.0,-493.0,-672.0,196.0
408.0,128.0,-450.0,-352.0,672.0,-591.0,-643.0,119.0
122.0,63.0,-283.0,-462.0,751.0,-668.0,-522.0,-17.0
589.0,-2.0,-86.0,209.0,817.0,-750.0,-408.0,-101.0
1897.0,-69.0,-144.0,720.0,668.0,-859.0,-176.0,-101.0
2353.0,-66.0,19.0,906.0,358.0,-831.0,-32.0,-248.0
1541.0,52.0,-55.0,1287.0,8.0,-727.0,131.0,-431.0
524.0,143.0,-2188.0,1339.0,-164.0,-565.0,392.0,-412.0
-850.0,147.0,-3946.0,1314.0,-253.0,-390.0,590.0,-265.0
-1430.0,152.0,-1813.0,1422.0,-599.0,-349.0,598.0,-253.0
-1604.0,125.0,1192.0,1089.0,-1601.0,-342.0,449.0,-315.0
-1552.0,98.0,3072.0,806.0,-2442.0,-212.0,469.0,-431.0
-1668.0,99.0,4000.0,720.0,-2187.0,106.0,535.0,-687.0
-1750.0,115.0,4000.0,655.0,-1589.0,469.0,642.0,-801.0
-1430.0,63.0,3434.0,960.0,-1528.0,687.0,726.0,-990.0
-1430.0,44.0,2539.0,1018.0,-2159.0,902.0,652.0,-1325.0
-1280.0,95.0,2054.0,968.0,-2818.0,1018.0,576.0,-1590.0
-966.0,182.0,1517.0,915.0,-3343.0,725.0,467.0,-1607.0
-551.0,238.0,1348.0,1053.0,-4000.0,576.0,441.0,-1256.0
-250.0,131.0,1152.0,1249.0,-4000.0,713.0,506.0,-883.0
144.0,58.0,272.0,756.0,-4000.0,938.0,523.0,-673.0
346.0,38.0,-198.0,103.0,-4000.0,1018.0,441.0,-507.0
589.0,16.0,-302.0,-173.0,-4000.0,791.0,163.0,-287.0
824.0,67.0,-768.0,-345.0,-4000.0,1124.0,-51.0,119.0
762.0,135.0,-1024.0,-433.0,-4000.0,1462.0,-156.0,384.0
798.0,105.0,-709.0,-263.0,-4000.0,1092.0,-111.0,695.0
824.0,13.0,-585.0,-223.0,-4000.0,1417.0,42.0,1176.0
961.0,33.0,-550.0,-279.0,-4000.0,1604.0,-35.0,1467.0
1045.0,45.0,-454.0,-206.0,-4000.0,1352.0,-143.0,1598.0
863.0,56.0,-450.0,-389.0,-4000.0,1759.0,-121.0,1963.0
725.0,66.0,-497.0,-576.0,-4000.0,1852.0,-159.0,2507.0
595.0,41.0,-515.0,-589.0,-4000.0,1824.0,-83.0,2770.0
433.0,79.0,-617.0,-633.0,-4000.0,1799.0,185.0,2813.0
645.0,29.0,-557.0,-455.0,-4000.0,1604.0,135.0,2478.0
929.0,-33.0,-258.0,-346.0,-4000.0,1468.0,65.0,1848.0
1559.0,-46.0,-136.0,-344.0,-4000.0,1312.0,274.0,992.0
2353.0,-85.0,-93.0,-241.0,-4000.0,1287.0,474.0,89.0
2209.0,-55.0,-48.0,-198.0,-4000.0,1214.0,1528.0,-280.0
1181.0,0.0,28.0,-77.0,-4000.0,1142.0,2956.0,-492.0
-107.0,46.0,46.0,-36.0,-4000.0,967.0,2814.0,-794.0
-1292.0,24.0,6.0,-65.0,-4000.0,701.0,1345.0,-947.0
-1687.0,67.0,80.0,56.0,-4000.0,335.0,-334.0,-736.0
-1856.0,60.0,296.0,118.0,-3575.0,-58.0,-2186.0,-659.0
-1670.0,8.0,533.0,132.0,-3327.0,-179.0,-3455.0,-671.0
-1090.0,-46.0,252.0,75.0,-3247.0,119.0,-2530.0,-572.0
-386.0,-209.0,-312.0,-36.0,-2729.0,376.0,-32.0,-449.0
-260.0,-232.0,-193.0,-16.0,-2442.0,268.0,684.0,-254.0
-513.0,-202.0,95.0,-101.0,-2735.0,469.0,1092.0,-232.0
39.0,-179.0,-64.0,-328.0,-2857.0,361.0,2631.0,-166.0
-719.0,-188.0,-234.0,-397.0,-2741.0,-532.0,1906.0,-105.0
-493.0,-107.0,-282.0,-282.0,-2857.0,-976.0,-342.0,-83.0
80.0,4.0,-120.0,-163.0,-3213.0,-1005.0,-1271.0,127.0
-909.0,-40.0,-63.0,-197.0,-2922.0,-1092.0,-1441.0,334.0
-228.0,-107.0,-93.0,-200.0,-1963.0,-796.0,-1881.0,276.0
1767.0,-143.0,-9.0,-195.0,-1626.0,-1672.0,-587.0,187.0
4000.0,-159.0,42.0,-224.0,-1528.0,-2558.0,2114.0,92.0
4000.0,-192.0,102.0,-265.0,-1072.0,-1851.0,2125.0,-82.0
4000.0,-34.0,-306.0,-223.0,-521.0,-1582.0,2486.0,-478.0
2976.0,37.0,-817.0,-202.0,232.0,-1532.0,3904.0,-947.0
-2254.0,57.0,-1093.0,-260.0,375.0,-1005.0,3347.0,-1050.0
-4000.0,197.0,-1214.0,-263.0,-190.0,-293.0,3021.0,-1123.0
-4000.0,214.0,-5.0,-250.0,-273.0,441.0,1084.0,-1245.0
-4000.0,186.0,902.0,-193.0,553.0,1045.0,-1702.0,-1319.0
-4000.0,188.0,395.0,-206.0,1018.0,1733.0,-1507.0,-1256.0
-3540.0,164.0,-288.0,-184.0,302.0,2512.0,234.0,-1508.0
-1670.0,69.0,-389.0,-190.0,-549.0,2490.0,1788.0,-2231.0
-1218.0,0.0,-255.0,-279.0,-847.0,1798.0,497.0,-1921.0
-3050.0,-137.0,-363.0,-261.0,-827.0,1214.0,-2408.0,-1148.0
-3722.0,-188.0,-30.0,-190.0,-977.0,987.0,-4000.0,-883.0
-481.0,-49.0,-68.0,-186.0,-1055.0,1071.0,-4000.0,-769.0
4000.0,309.0,-546.0,-105.0,-877.0,576.0,-2610.0,-875.0
4000.0,536.0,-637.0,-6.0,56.0,-685.0,1591.0,-748.0
2781.0,282.0,847.0,-44.0,1775.0,-1382.0,4000.0,-549.0
3004.0,4.0,923.0,-55.0,4000.0,-716.0,4000.0,-232.0
3070.0,-159.0,-187.0,-5.0,4000.0,-441.0,4000.0,75.0
2545.0,-163.0,349.0,33.0,4000.0,-1290.0,1735.0,174.0
1634.0,-144.0,-53.0,56.0,4000.0,-685.0,-2734.0,-232.0
-157.0,-196.0,-328.0,103.0,4000.0,-219.0,-4000.0,-656.0
-1658.0,-199.0,62.0,134.0,4000.0,-1652.0,-4000.0,77.0
1095.0,-202.0,280.0,174.0,4000.0,-2689.0,-4000.0,742.0
4000.0,-183.0,361.0,337.0,4000.0,-2725.0,-1848.0,686.0
4000.0,-249.0,84.0,603.0,4000.0,-2353.0,593.0,269.0
4000.0,-310.0,12.0,400.0,4000.0,-2463.0,1757.0,-529.0
-4000.0,-237.0,695.0,-89.0,4000.0,-2105.0,2452.0,-1078.0
-4000.0,-147.0,1041.0,-190.0,4000.0,-932.0,2814.0,-1456.0
-4000.0,-98.0,850.0,-194.0,4000.0,-716.0,3411.0,-1330.0
-4000.0,-31.0,1159.0,-125.0,4000.0,-222.0,3917.0,-675.0
-4000.0,20.0,828.0,-102.0,4000.0,725.0,2422.0,-8.0
-4000.0,36.0,845.0,-151.0,4000.0,967.0,-464.0,798.0
-2124.0,157.0,976.0,-162.0,4000.0,1083.0,-4000.0,1716.0
1259.0,239.0,657.0,-79.0,4000.0,693.0,-4000.0,2302.0
4000.0,67.0,642.0,76.0,4000.0,368.0,-3249.0,2478.0
4000.0,-179.0,385.0,105.0,4000.0,622.0,-546.0,2367.0
4000.0,-110.0,381.0,116.0,4000.0,1263.0,1313.0,1960.0
-4000.0,133.0,559.0,182.0,4000.0,1395.0,2582.0,1650.0
-4000.0,316.0,719.0,419.0,3334.0,1148.0,3950.0,1521.0
-4000.0,305.0,606.0,779.0,2943.0,1669.0,4000.0,1399.0
-4000.0,4.0,467.0,858.0,2907.0,2382.0,4000.0,1183.0
-2306.0,-206.0,238.0,298.0,2424.0,2877.0,1645.0,784.0
3429.0,-310.0,100.0,-271.0,1462.0,2099.0,-2317.0,882.0
4000.0,-80.0,0.0,-515.0,190.0,1456.0,-4000.0,1403.0
4000.0,244.0,-41.0,-572.0,-52.0,1929.0,-4000.0,1541.0
4000.0,22.0,1163.0,-558.0,-319.0,1279.0,-2934.0,1272.0
1102.0,-114.0,2030.0,-515.0,-862.0,-613.0,1119.0,1047.0
-1585.0,43.0,1794.0,-328.0,-1446.0,-1532.0,702.0,1182.0
-1031.0,90.0,520.0,-290.0,-1888.0,-1302.0,-876.0,1468.0
4000.0,-2.0,-1823.0,-418.0,-2147.0,-1172.0,-615.0,1989.0
2715.0,-112.0,-2770.0,-604.0,-2552.0,-1135.0,-273.0,2507.0
-4000.0,-145.0,-1917.0,-414.0,-3066.0,-1010.0,33.0,2748.0
-4000.0,-34.0,-297.0,-178.0,-3186.0,-816.0,273.0,2835.0
-4000.0,57.0,1223.0,-96.0,-3260.0,-1186.0,336.0,2689.0
-4000.0,108.0,2347.0,77.0,-4000.0,-1265.0,539.0,2433.0
-1277.0,182.0,3366.0,46.0,-4000.0,-791.0,1381.0,1912.0
3460.0,44.0,3238.0,67.0,-4000.0,-532.0,1711.0,1476.0
4000.0,-45.0,1119.0,78.0,-4000.0,-550.0,1027.0,1130.0
4000.0,-57.0,-833.0,158.0,-4000.0,-1896.0,-285.0,686.0
4000.0,116.0,-2110.0,-25.0,-4000.0,-2481.0,-2649.0,304.0
-4000.0,347.0,-1297.0,-234.0,-4000.0,-1496.0,-4000.0,-295.0
-4000.0,270.0,630.0,-61.0,-4000.0,-1437.0,-4000.0,-840.0
-4000.0,294.0,728.0,-6.0,-4000.0,-940.0,-3273.0,-1339.0
-4000.0,408.0,4000.0,182.0,-4000.0,326.0,-1684.0,-1894.0
-4000.0,281.0,4000.0,406.0,-4000.0,684.0,-280.0,-2153.0
-4000.0,105.0,2783.0,512.0,-4000.0,114.0,-196.0,-2193.0
-4000.0,162.0,-2786.0,276.0,-4000.0,-565.0,-313.0,-2230.0
-1882.0,294.0,-4000.0,-70.0,-4000.0,-972.0,942.0,-2347.0
986.0,157.0,-4000.0,-153.0,-4000.0,-535.0,1602.0,-2440.0
-2790.0,-80.0,-4000.0,-206.0,-4000.0,-600.0,1640.0,-2457.0
-1266.0,1.0,-4000.0,-100.0,-3963.0,-1396.0,1854.0,-2395.0
3052.0,105.0,-4000.0,-5.0,-2806.0,-1850.0,2557.0,-2259.0
2781.0,34.0,-2689.0,-7.0,-1953.0,-1898.0,3607.0,-2114.0
4000.0,-295.0,-2202.0,-9.0,-1398.0,-1031.0,3282.0,-2146.0
4000.0,-358.0,-1203.0,51.0,-669.0,-384.0,1996.0,-2051.0
4000.0,-193.0,2455.0,174.0,-99.0,274.0,-1184.0,-1904.0
4000.0,-179.0,3829.0,309.0,299.0,953.0,-4000.0,-1790.0
4000.0,-10.0,3510.0,364.0,1207.0,1258.0,-4000.0,-1558.0
4000.0,30.0,3971.0,248.0,1930.0,706.0,-4000.0,-1404.0
4000.0,120.0,1127.0,150.0,2383.0,-21.0,-179.0,-1497.0
4000.0,201.0,-1732.0,198.0,2124.0,-346.0,3086.0,-1677.0
4000.0,205.0,-4000.0,175.0,1279.0,-452.0,2444.0,-1723.0
3757.0,150.0,-4000.0,-32.0,575.0,315.0,1332.0,-1709.0
3756.0,28.0,-4000.0,-205.0,-9.0,348.0,-20.0,-1691.0
4000.0,-92.0,-4000.0,-191.0,-179.0,155.0,-751.0,-1762.0
4000.0,-202.0,-2835.0,-113.0,-118.0,152.0,-2042.0,-1970.0
4000.0,-118.0,-906.0,-255.0,358.0,-114.0,-2405.0,-1826.0
4000.0,-134.0,1053.0,-250.0,1026.0,62.0,-716.0,-1111.0
4000.0,-286.0,1366.0,-15.0,1768.0,-493.0,155.0,-370.0
2471.0,-337.0,2030.0,-55.0,1918.0,-932.0,1266.0,120.0
2909.0,-343.0,3119.0,-82.0,2032.0,-1042.0,1931.0,438.0
447.0,-255.0,3185.0,-22.0,2190.0,-1115.0,1463.0,620.0
-4000.0,50.0,3527.0,-17.0,1930.0,-917.0,903.0,947.0
-4000.0,355.0,3853.0,-5.0,2441.0,-763.0,726.0,1156.0
-4000.0,420.0,4000.0,-17.0,2374.0,-383.0,858.0,1307.0
-4000.0,281.0,4000.0,-32.0,2160.0,-159.0,767.0,1468.0
-4000.0,163.0,3380.0,-128.0,2321.0,113.0,832.0,1521.0
-4000.0,110.0,2525.0,-114.0,1918.0,347.0,1189.0,1598.0
-4000.0,21.0,1871.0,-61.0,2160.0,542.0,1444.0,1595.0
-4000.0,30.0,1314.0,-72.0,2190.0,811.0,1326.0,1512.0
-915.0,-155.0,1615.0,12.0,2551.0,1026.0,1143.0,1532.0
4000.0,-247.0,1936.0,150.0,2683.0,1269.0,1223.0,1704.0
4000.0,-67.0,2006.0,113.0,2513.0,1352.0,1329.0,1859.0
2874.0,-73.0,1562.0,-13.0,2748.0,1417.0,1206.0,1914.0
4000.0,-209.0,964.0,-41.0,2578.0,1409.0,1158.0,1977.0
4000.0,-310.0,663.0,-10.0,2760.0,1395.0,954.0,1899.0
4000.0,-444.0,476.0,16.0,2354.0,1148.0,687.0,1763.0
4000.0,-631.0,982.0,-7.0,2224.0,740.0,529.0,1623.0
4000.0,-599.0,1574.0,33.0,2160.0,390.0,248.0,1334.0
-3050.0,-346.0,2976.0,88.0,1787.0,37.0,-323.0,882.0
-3307.0,-181.0,2783.0,113.0,1995.0,-98.0,-1043.0,414.0
3674.0,-287.0,-358.0,140.0,1824.0,-77.0,-1173.0,213.0
4000.0,-294.0,-2057.0,77.0,2060.0,65.0,-876.0,140.0
4000.0,150.0,-2448.0,-4.0,2189.0,177.0,-390.0,-91.0
4000.0,428.0,-1682.0,-54.0,1669.0,-84.0,-48.0,-415.0
4000.0,378.0,-869.0,-57.0,1574.0,-282.0,-13.0,-720.0
4000.0,245.0,-578.0,-1.0,1352.0,-226.0,-54.0,-1058.0
4000.0,164.0,361.0,22.0,1263.0,-216.0,-13.0,-1322.0
-4000.0,17.0,547.0,40.0,1539.0,-6.0,297.0,-1644.0
-4000.0,-479.0,447.0,-19.0,1417.0,463.0,394.0,-2179.0
-4000.0,-781.0,16.0,-106.0,823.0,1003.0,368.0,-2941.0
-4000.0,-742.0,180.0,-76.0,375.0,1734.0,445.0,-3695.0
-4000.0,-618.0,-192.0,-53.0,-41.0,2373.0,514.0,-3969.0
-4000.0,-578.0,-566.0,-155.0,-621.0,2812.0,678.0,-3991.0
-4000.0,-570.0,-245.0,-220.0,-1359.0,3409.0,1070.0,-4000.0
-4000.0,0.0,-328.0,-163.0,-1749.0,4000.0,1293.0,-4000.0
-4000.0,1051.0,-283.0,-136.0,-2029.0,4000.0,968.0,-4000.0
-1707.0,1803.0,-652.0,-209.0,-2870.0,4000.0,881.0,-4000.0
-4000.0,2078.0,-49.0,-232.0,-3446.0,4000.0,942.0,-3935.0
-4000.0,2732.0,598.0,-94.0,-3905.0,4000.0,673.0,-3809.0
1356.0,3258.0,-505.0,50.0,-3586.0,3083.0,707.0,-3669.0
4000.0,3079.0,-1476.0,111.0,-3066.0,1604.0,607.0,-2215.0
4000.0,2661.0,-1492.0,42.0,-3754.0,439.0,116.0,-507.0
4000.0,1311.0,-1019.0,-32.0,-4000.0,-238.0,-208.0,1467.0
4000.0,-163.0,-454.0,5.0,-3663.0,-761.0,-182.0,4000.0
4000.0,-1095.0,-298.0,16.0,-3856.0,-1115.0,-159.0,4000.0
4000.0,-2046.0,207.0,231.0,-3575.0,-1452.0,-161.0,4000.0
4000.0,-1916.0,523.0,329.0,-3315.0,-1701.0,-61.0,4000.0
4000.0,-667.0,572.0,-126.0,-3278.0,-1961.0,-74.0,4000.0
4000.0,615.0,364.0,-348.0,-3213.0,-2222.0,-290.0,4000.0
4000.0,640.0,158.0,-371.0,-3445.0,-2245.0,-643.0,4000.0
4000.0,-97.0,319.0,-356.0,-2870.0,-2138.0,-723.0,4000.0
4000.0,-631.0,266.0,32.0,-3079.0,-1949.0,-435.0,4000.0
4000.0,-2229.0,139.0,207.0,-3982.0,-1650.0,6.0,4000.0
4000.0,-3684.0,-38.0,134.0,-3747.0,-1310.0,148.0,4000.0
4000.0,-4000.0,598.0,122.0,-3445.0,-1038.0,-424.0,4000.0
3236.0,-4000.0,1739.0,126.0,-3898.0,-789.0,-769.0,3206.0
4000.0,-4000.0,908.0,139.0,-4000.0,-565.0,-455.0,1091.0
4000.0,-4000.0,-951.0,120.0,-4000.0,-476.0,-178.0,-1339.0
4000.0,-3705.0,-1655.0,123.0,-3327.0,-419.0,-23.0,-2004.0
1832.0,-1653.0,-1927.0,142.0,-2122.0,-345.0,-436.0,-1534.0
-4000.0,663.0,-1387.0,-13.0,-1795.0,-293.0,-1051.0,-1921.0
-4000.0,2608.0,-825.0,-77.0,-1750.0,-262.0,-1169.0,-11.0
-4000.0,2932.0,-442.0,69.0,-812.0,-308.0,-1006.0,1069.0
-4000.0,3244.0,-190.0,433.0,-443.0,-397.0,-998.0,-1494.0
-2528.0,3831.0,-17.0,538.0,-856.0,-741.0,-1449.0,-3191.0
-346.0,3878.0,254.0,255.0,-413.0,-1290.0,-1625.0,-4000.0
-13.0,4000.0,-85.0,203.0,-140.0,-1669.0,-1189.0,-4000.0
689.0,3893.0,-65.0,-71.0,747.0,-1883.0,-1011.0,-4000.0
514.0,2856.0,-68.0,-321.0,2354.0,-1960.0,-1376.0,-4000.0
-136.0,2144.0,-30.0,-376.0,2451.0,-1850.0,-1917.0,-4000.0
408.0,1193.0,53.0,-546.0,1456.0,-1672.0,-1600.0,-4000.0
-190.0,-414.0,-94.0,-462.0,-350.0,-1396.0,-555.0,-856.0
-416.0,-1324.0,-66.0,-344.0,-1963.0,-940.0,-151.0,384.0
-844.0,-2993.0,-108.0,-397.0,-3197.0,-586.0,-505.0,-1772.0
-580.0,-3272.0,-45.0,-336.0,-2726.0,-188.0,-1332.0,-974.0
86.0,-2612.0,20.0,-45.0,-41.0,73.0,-1397.0,162.0
32.0,-4000.0,139.0,139.0,2383.0,172.0,-556.0,-610.0
186.0,-4000.0,657.0,207.0,3790.0,341.0,201.0,1437.0
595.0,-4000.0,1452.0,255.0,3593.0,337.0,217.0,165.0
624.0,-2886.0,1152.0,287.0,3623.0,420.0,-476.0,-671.0
332.0,-1466.0,-252.0,300.0,3281.0,455.0,-611.0,304.0
104.0,-1132.0,-882.0,305.0,2972.0,526.0,-334.0,-543.0
168.0,-730.0,-707.0,356.0,3167.0,563.0,-350.0,-1595.0
713.0,1063.0,-342.0,377.0,2630.0,463.0,-664.0,-3089.0
1637.0,2103.0,-324.0,398.0,2842.0,97.0,-876.0,-2360.0
1950.0,3051.0,-165.0,264.0,2955.0,-459.0,-420.0,-1143.0
586.0,3583.0,2.0,14.0,2556.0,-672.0,661.0,-1339.0
-807.0,3990.0,-122.0,-277.0,1918.0,-773.0,1418.0,-1310.0
-1834.0,4000.0,-304.0,-510.0,1601.0,-696.0,1787.0,-1820.0
-1834.0,4000.0,-596.0,-567.0,1592.0,-510.0,1593.0,-3321.0
-1072.0,4000.0,-645.0,-446.0,1842.0,-381.0,883.0,-4000.0
-1266.0,3275.0,-507.0,-136.0,1639.0,-541.0,246.0,-4000.0
-1227.0,1896.0,-129.0,43.0,1482.0,-896.0,97.0,-4000.0
-1552.0,309.0,147.0,10.0,2035.0,-1096.0,746.0,-4000.0
-1918.0,-1147.0,345.0,26.0,1855.0,-1310.0,1033.0,-4000.0
-1931.0,-1667.0,533.0,56.0,1333.0,-1383.0,1092.0,-4000.0
-1235.0,-1452.0,621.0,-22.0,987.0,-1357.0,492.0,-4000.0
-428.0,-2139.0,671.0,6.0,471.0,-1103.0,-867.0,-4000.0
-691.0,-2241.0,566.0,23.0,-983.0,-565.0,-1291.0,-4000.0
-641.0,-1350.0,466.0,41.0,-1915.0,-140.0,-1048.0,-4000.0
-1324.0,159.0,315.0,81.0,-1051.0,210.0,-74.0,-4000.0
-815.0,1042.0,178.0,66.0,-677.0,415.0,628.0,-4000.0
370.0,817.0,76.0,92.0,-1182.0,380.0,210.0,-4000.0
648.0,451.0,-41.0,85.0,-1292.0,326.0,-615.0,-4000.0
1181.0,-746.0,-31.0,30.0,-947.0,311.0,-882.0,-4000.0
1181.0,-1652.0,-64.0,-65.0,-364.0,324.0,-143.0,-4000.0
1303.0,-2269.0,-115.0,-88.0,627.0,404.0,598.0,-4000.0
1540.0,-3164.0,-126.0,65.0,1666.0,576.0,336.0,-4000.0
680.0,-3472.0,-192.0,112.0,2646.0,758.0,-47.0,-4000.0
-541.0,-2157.0,-114.0,50.0,3297.0,766.0,681.0,-4000.0
-647.0,-895.0,-79.0,8.0,3707.0,354.0,1270.0,-3842.0
-361.0,-134.0,-181.0,-3.0,4000.0,-450.0,1019.0,-3073.0
125.0,460.0,-253.0,-87.0,4000.0,-1270.0,858.0,-1808.0
342.0,181.0,-440.0,-231.0,4000.0,-1831.0,1205.0,-329.0
306.0,102.0,-447.0,-178.0,4000.0,-1502.0,1214.0,947.0
429.0,120.0,-343.0,-141.0,4000.0,-320.0,903.0,1989.0
849.0,122.0,-138.0,-208.0,4000.0,274.0,1143.0,2742.0
1498.0,300.0,163.0,-143.0,4000.0,-22.0,1337.0,3535.0
888.0,359.0,345.0,-106.0,4000.0,-382.0,1064.0,4000.0
-55.0,897.0,374.0,-143.0,4000.0,-188.0,945.0,4000.0
-821.0,2026.0,126.0,-89.0,4000.0,139.0,860.0,4000.0
-1604.0,2726.0,21.0,-88.0,4000.0,321.0,767.0,4000.0
-1978.0,3079.0,88.0,-140.0,4000.0,528.0,832.0,4000.0
-2049.0,3079.0,147.0,-109.0,4000.0,506.0,791.0,4000.0
-1206.0,2738.0,146.0,-128.0,4000.0,498.0,867.0,4000.0
457.0,2559.0,80.0,-71.0,4000.0,528.0,867.0,4000.0
-203.0,2138.0,49.0,9.0,4000.0,746.0,738.0,4000.0
-2839.0,1713.0,24.0,18.0,4000.0,986.0,571.0,4000.0
-3347.0,1497.0,-45.0,56.0,4000.0,1214.0,532.0,4000.0
-2920.0,1500.0,48.0,19.0,4000.0,1254.0,283.0,4000.0
-2348.0,1305.0,33.0,9.0,4000.0,888.0,23.0,4000.0
-1950.0,681.0,-92.0,7.0,4000.0,888.0,148.0,4000.0
-1090.0,502.0,119.0,-32.0,4000.0,902.0,43.0,4000.0
233.0,835.0,203.0,-50.0,4000.0,685.0,-45.0,4000.0
789.0,2341.0,402.0,-62.0,3802.0,607.0,-241.0,4000.0
1116.0,3178.0,427.0,-21.0,-2507.0,734.0,-507.0,3910.0
1149.0,1173.0,217.0,-63.0,-4000.0,831.0,-275.0,4000.0
1104.0,-1618.0,150.0,-127.0,-4000.0,888.0,590.0,4000.0
952.0,-4000.0,-169.0,-216.0,-4000.0,1026.0,1064.0,4000.0
699.0,-4000.0,-119.0,-243.0,-4000.0,994.0,707.0,4000.0
149.0,-4000.0,115.0,-185.0,-4000.0,941.0,396.0,4000.0
-8.0,-3136.0,410.0,-194.0,-4000.0,961.0,151.0,4000.0
118.0,-3935.0,447.0,-185.0,-4000.0,1009.0,47.0,4000.0
102.0,-4000.0,-135.0,-155.0,-4000.0,1092.0,-51.0,4000.0
212.0,-4000.0,34.0,-116.0,-4000.0,1279.0,-29.0,4000.0
586.0,-4000.0,402.0,-101.0,-4000.0,1539.0,-56.0,4000.0
837.0,-2680.0,-61.0,-88.0,-4000.0,1645.0,-65.0,4000.0
1038.0,-1116.0,-245.0,-53.0,-4000.0,1644.0,48.0,3600.0
1559.0,-104.0,-317.0,-33.0,-4000.0,1722.0,-125.0,2640.0
3443.0,115.0,-668.0,7.0,-4000.0,1539.0,-203.0,1728.0
4000.0,343.0,-544.0,19.0,-4000.0,1279.0,-253.0,831.0
4000.0,15.0,-819.0,40.0,-4000.0,1378.0,-392.0,5.0
2857.0,102.0,-1131.0,49.0,-3803.0,1222.0,-489.0,-818.0
564.0,-113.0,-856.0,98.0,-2660.0,1059.0,-450.0,-201.0
-1083.0,-301.0,-688.0,132.0,-1207.0,967.0,-283.0,1585.0
-2985.0,-196.0,-625.0,105.0,-770.0,766.0,-277.0,1704.0
-3787.0,-214.0,-580.0,150.0,-556.0,673.0,-298.0,1846.0
-3347.0,371.0,-182.0,210.0,210.0,469.0,-228.0,2416.0
-3099.0,713.0,-67.0,269.0,888.0,347.0,-259.0,1818.0
-3034.0,788.0,-292.0,250.0,1189.0,376.0,-317.0,1660.0
-2985.0,664.0,-98.0,262.0,1722.0,528.0,-337.0,447.0
-2958.0,693.0,75.0,431.0,3102.0,684.0,-317.0,-1365.0
-2454.0,534.0,81.0,504.0,4000.0,684.0,-261.0,-3203.0
-1146.0,477.0,149.0,215.0,4000.0,339.0,-310.0,-4000.0
-331.0,522.0,179.0,-71.0,4000.0,-23.0,-353.0,-4000.0
430.0,541.0,-125.0,-171.0,4000.0,-194.0,-294.0,-4000.0
1246.0,537.0,-171.0,-217.0,4000.0,-394.0,-272.0,-4000.0
1116.0,311.0,72.0,-129.0,4000.0,-476.0,-159.0,-4000.0
1059.0,152.0,318.0,-33.0,4000.0,-582.0,-110.0,-4000.0
1214.0,-97.0,598.0,94.0,4000.0,-630.0,-139.0,-4000.0
1427.0,-28.0,526.0,99.0,4000.0,-620.0,-167.0,-4000.0
1623.0,87.0,546.0,107.0,4000.0,-630.0,-384.0,-4000.0
1702.0,211.0,546.0,190.0,4000.0,-620.0,-402.0,-4000.0
1791.0,374.0,425.0,197.0,4000.0,-546.0,-298.0,-3824.0
1634.0,384.0,284.0,150.0,4000.0,-399.0,-290.0,-3451.0
1345.0,437.0,142.0,42.0,4000.0,-257.0,-294.0,-3005.0
920.0,319.0,19.0,13.0,4000.0,-122.0,-281.0,-2741.0
569.0,142.0,-43.0,-6.0,4000.0,-98.0,-253.0,-2460.0
367.0,22.0,4.0,16.0,4000.0,-68.0,-331.0,-2192.0
202.0,73.0,-82.0,44.0,4000.0,-251.0,-375.0,-1891.0
99.0,224.0,-97.0,128.0,4000.0,-439.0,-390.0,-1659.0
-61.0,309.0,-141.0,142.0,4000.0,-611.0,-401.0,-1384.0
-195.0,355.0,-123.0,122.0,4000.0,-620.0,-385.0,-1049.0
-323.0,389.0,-42.0,93.0,4000.0,-546.0,-379.0,-730.0
-428.0,412.0,16.0,27.0,4000.0,-672.0,-333.0,-390.0
-483.0,395.0,134.0,96.0,4000.0,154.0,-308.0,-84.0
-560.0,347.0,131.0,75.0,4000.0,548.0,-226.0,148.0
-584.0,319.0,146.0,11.0,4000.0,-2.0,-159.0,247.0
-630.0,338.0,128.0,-54.0,4000.0,57.0,-155.0,355.0
-654.0,386.0,69.0,-106.0,4000.0,104.0,-87.0,455.0
-620.0,372.0,-30.0,-169.0,4000.0,115.0,23.0,461.0
-575.0,328.0,-60.0,-278.0,4000.0,44.0,-17.0,434.0
-550.0,277.0,24.0,-249.0,4000.0,-47.0,-159.0,413.0
-489.0,189.0,-83.0,-250.0,4000.0,50.0,-320.0,308.0
-457.0,115.0,-226.0,-251.0,4000.0,-122.0,-620.0,235.0
-409.0,28.0,-190.0,-172.0,4000.0,-440.0,-941.0,230.0
-313.0,-48.0,-216.0,-173.0,4000.0,-289.0,-737.0,279.0
-285.0,-125.0,-232.0,-191.0,4000.0,-35.0,197.0,322.0
-261.0,-181.0,-212.0,-217.0,4000.0,-178.0,903.0,304.0
-234.0,-181.0,-125.0,-196.0,4000.0,-280.0,949.0,165.0
-190.0,-168.0,-21.0,-94.0,4000.0,-318.0,637.0,-124.0
-118.0,-167.0,85.0,28.0,3399.0,-423.0,248.0,-292.0
-35.0,-118.0,313.0,85.0,2683.0,-228.0,67.0,-175.0
9.0,-72.0,290.0,48.0,1531.0,-26.0,301.0,82.0
10.0,-26.0,199.0,19.0,236.0,21.0,687.0,122.0
-29.0,12.0,237.0,42.0,-1398.0,29.0,918.0,26.0
-84.0,-33.0,236.0,23.0,-2715.0,-297.0,492.0,-19.0
-105.0,-63.0,215.0,-14.0,-3539.0,-825.0,-1503.0,-320.0
-158.0,-40.0,177.0,34.0,-4000.0,-1376.0,-1511.0,-818.0
-197.0,-6.0,106.0,0.0,-4000.0,-1774.0,445.0,-1658.0
-179.0,18.0,-53.0,-72.0,-4000.0,-2286.0,144.0,-2682.0
-136.0,78.0,-149.0,-133.0,-4000.0,-2608.0,498.0,-2515.0
-150.0,110.0,-215.0,-282.0,-4000.0,-2803.0,903.0,-1615.0
-144.0,111.0,-324.0,-344.0,-4000.0,-3453.0,311.0,-1607.0
-107.0,135.0,-393.0,-357.0,-4000.0,-3336.0,133.0,-1204.0
-88.0,116.0,-357.0,-293.0,-4000.0,-3079.0,-290.0,-679.0
-79.0,156.0,-157.0,-137.0,-4000.0,-3179.0,139.0,-844.0
-65.0,167.0,-24.0,-82.0,-4000.0,-3048.0,707.0,-427.0
-33.0,118.0,80.0,-130.0,-4000.0,-2863.0,883.0,-111.0
-42.0,95.0,207.0,-372.0,-4000.0,-1672.0,661.0,206.0
-24.0,84.0,263.0,-502.0,-4000.0,-685.0,510.0,338.0
11.0,113.0,295.0,-126.0,-4000.0,-200.0,687.0,134.0
-2.0,117.0,325.0,179.0,-4000.0,664.0,1199.0,324.0
-96.0,112.0,345.0,325.0,-4000.0,1445.0,1522.0,434.0
-18.0,75.0,263.0,417.0,-4000.0,1991.0,1092.0,491.0
180.0,68.0,229.0,352.0,-3586.0,2319.0,303.0,609.0
199.0,98.0,215.0,264.0,-3132.0,2485.0,-6.0,725.0
228.0,128.0,172.0,77.0,-2561.0,2308.0,823.0,580.0
281.0,155.0,251.0,-72.0,-1898.0,1864.0,1214.0,522.0
248.0,147.0,195.0,-178.0,-1316.0,1269.0,998.0,992.0
7.0,170.0,114.0,-228.0,-775.0,888.0,661.0,1448.0
-247.0,191.0,187.0,-263.0,-364.0,888.0,543.0,2030.0
-253.0,183.0,288.0,-155.0,66.0,882.0,745.0,2302.0
-374.0,160.0,324.0,-37.0,607.0,463.0,516.0,1651.0
-141.0,140.0,211.0,42.0,1083.0,336.0,-48.0,1130.0
346.0,119.0,23.0,73.0,1142.0,805.0,-536.0,870.0
428.0,114.0,-82.0,-5.0,1266.0,858.0,-383.0,751.0
456.0,151.0,-26.0,4.0,1579.0,520.0,-228.0,938.0
465.0,144.0,-25.0,-10.0,1840.0,217.0,-327.0,1047.0
508.0,277.0,-50.0,-16.0,2254.0,-82.0,-615.0,825.0
447.0,502.0,-77.0,7.0,2569.0,-2.0,-1038.0,638.0
220.0,533.0,-157.0,-11.0,2813.0,-173.0,-611.0,1201.0
138.0,436.0,-285.0,-7.0,2940.0,-770.0,-125.0,1437.0
70.0,353.0,-271.0,10.0,2711.0,-1162.0,-128.0,499.0
-214.0,90.0,-182.0,-1.0,2646.0,-1032.0,-657.0,124.0
-508.0,-546.0,-153.0,20.0,2776.0,-786.0,-1168.0,286.0
-807.0,-1123.0,-252.0,1.0,2581.0,-1486.0,-855.0,95.0
-909.0,-993.0,-318.0,5.0,2308.0,-1330.0,-382.0,17.0
-277.0,-562.0,-111.0,44.0,2386.0,-358.0,-97.0,224.0
570.0,-318.0,-59.0,67.0,2683.0,-158.0,98.0,465.0
660.0,-287.0,-149.0,171.0,2711.0,-526.0,220.0,593.0
825.0,-289.0,-211.0,347.0,2378.0,-816.0,461.0,922.0
1450.0,-267.0,-159.0,264.0,2048.0,-347.0,749.0,1156.0
1254.0,-318.0,-61.0,26.0,1579.0,-43.0,720.0,1114.0
591.0,-202.0,-19.0,10.0,1018.0,237.0,772.0,876.0
-166.0,-120.0,-27.0,-55.0,822.0,433.0,102.0,678.0
-470.0,-93.0,-116.0,-74.0,651.0,603.0,-533.0,442.0
-518.0,-99.0,-125.0,-8.0,627.0,817.0,-184.0,181.0
-744.0,-49.0,-48.0,-5.0,142.0,858.0,234.0,-65.0
-714.0,33.0,23.0,26.0,-476.0,823.0,1027.0,-321.0
-675.0,87.0,135.0,69.0,-571.0,526.0,1054.0,-380.0
-388.0,117.0,158.0,165.0,-724.0,321.0,426.0,-462.0
-469.0,99.0,41.0,174.0,-877.0,110.0,-127.0,-492.0
-425.0,98.0,-74.0,98.0,-673.0,67.0,-449.0,-557.0
-90.0,75.0,-155.0,46.0,-95.0,32.0,-475.0,-649.0
-159.0,90.0,-215.0,6.0,85.0,-11.0,-538.0,-671.0
-87.0,70.0,-246.0,-41.0,-476.0,-135.0,-550.0,-730.0
187.0,78.0,-200.0,-55.0,-1304.0,-419.0,-678.0,-796.0
199.0,120.0,-124.0,-93.0,-1292.0,-407.0,-1006.0,-846.0
-61.0,144.0,-70.0,-85.0,-1185.0,-269.0,-1305.0,-883.0
-123.0,130.0,88.0,-5.0,-1312.0,-159.0,-1246.0,-909.0
149.0,73.0,142.0,51.0,-1117.0,-123.0,-965.0,-862.0
334.0,13.0,12.0,10.0,-608.0,-95.0,-794.0,-758.0
458.0,-103.0,-31.0,-95.0,444.0,-112.0,-1184.0,-659.0
452.0,-207.0,-60.0,-79.0,745.0,-135.0,-1625.0,-614.0
325.0,-232.0,-78.0,-98.0,1032.0,-156.0,-1599.0,-187.0
516.0,-218.0,-45.0,-168.0,1898.0,-222.0,-1266.0,804.0
908.0,-214.0,-49.0,-175.0,2308.0,-161.0,-927.0,1334.0
583.0,-206.0,48.0,-70.0,2940.0,-185.0,-900.0,1338.0
-156.0,-150.0,174.0,-14.0,3788.0,-266.0,-1199.0,1789.0
-60.0,-117.0,502.0,68.0,4000.0,-246.0,-1291.0,1789.0
399.0,-127.0,659.0,170.0,4000.0,-273.0,-1071.0,629.0
574.0,-92.0,57.0,120.0,4000.0,-312.0,-923.0,-1078.0
393.0,-60.0,-277.0,125.0,4000.0,-147.0,-1035.0,-3113.0
-385.0,-31.0,-209.0,109.0,3529.0,129.0,-1271.0,-4000.0
-518.0,7.0,-257.0,52.0,3527.0,449.0,-1042.0,-4000.0
-220.0,71.0,295.0,-36.0,3281.0,831.0,-555.0,-4000.0
-712.0,60.0,973.0,-227.0,1853.0,1214.0,-149.0,-4000.0
-700.0,77.0,801.0,-267.0,856.0,1408.0,-6.0,-2763.0
-697.0,199.0,321.0,-158.0,1734.0,1315.0,50.0,-1520.0
-599.0,199.0,-450.0,-73.0,1775.0,1313.0,131.0,-818.0
-331.0,151.0,-1263.0,61.0,-285.0,1352.0,328.0,772.0
-120.0,92.0,-1427.0,187.0,-1685.0,1148.0,652.0,922.0
241.0,87.0,-1229.0,194.0,-1378.0,837.0,844.0,2094.0
-200.0,156.0,-882.0,155.0,-315.0,722.0,876.0,3328.0
-388.0,180.0,-645.0,179.0,426.0,815.0,604.0,3896.0
-226.0,140.0,-358.0,196.0,1509.0,837.0,334.0,4000.0
86.0,120.0,-219.0,-30.0,3150.0,793.0,412.0,3784.0
235.0,102.0,-297.0,-383.0,3334.0,750.0,628.0,3766.0
399.0,98.0,-440.0,-546.0,1865.0,758.0,655.0,3469.0
465.0,125.0,-716.0,-466.0,496.0,831.0,554.0,2754.0
160.0,128.0,-890.0,-422.0,-1064.0,888.0,425.0,1663.0
39.0,120.0,-519.0,-379.0,-2537.0,902.0,416.0,1026.0
-125.0,73.0,33.0,-208.0,-3197.0,896.0,416.0,882.0
-188.0,27.0,315.0,-101.0,-3510.0,933.0,352.0,1468.0
-323.0,9.0,891.0,-151.0,-3803.0,888.0,319.0,1989.0
-493.0,-31.0,1871.0,-101.0,-3754.0,837.0,220.0,2106.0
-575.0,-80.0,2653.0,-83.0,-3192.0,693.0,232.0,2248.0
-379.0,-33.0,1452.0,-104.0,-2935.0,528.0,262.0,2107.0
-125.0,-70.0,438.0,-42.0,-3001.0,368.0,227.0,1963.0
17.0,-84.0,1322.0,-87.0,-2611.0,203.0,394.0,1468.0
219.0,-21.0,3510.0,-102.0,-1756.0,146.0,498.0,367.0
256.0,-13.0,4000.0,-95.0,-1434.0,160.0,359.0,-1049.0
391.0,-15.0,2331.0,-42.0,-1312.0,243.0,600.0,-2151.0
464.0,-14.0,-1862.0,12.0,-602.0,334.0,680.0,-2051.0
436.0,-24.0,-3201.0,19.0,-918.0,548.0,528.0,-748.0
382.0,-83.0,-3290.0,34.0,-2400.0,837.0,637.0,-52.0
269.0,-114.0,-1992.0,22.0,-2598.0,1048.0,812.0,-70.0
175.0,-95.0,-1602.0,84.0,-1685.0,1083.0,1214.0,159.0
104.0,-109.0,-1276.0,139.0,-1691.0,953.0,1288.0,-345.0
259.0,-85.0,1262.0,150.0,-1515.0,725.0,1136.0,-348.0
406.0,-60.0,4000.0,140.0,-1685.0,498.0,1164.0,-517.0
351.0,-55.0,4000.0,171.0,-1333.0,164.0,1164.0,-980.0
118.0,-53.0,-1862.0,195.0,541.0,-190.0,1202.0,-889.0
-323.0,-52.0,-4000.0,162.0,1734.0,-362.0,1013.0,-1325.0
-523.0,-7.0,-4000.0,150.0,2513.0,-526.0,823.0,-1383.0
-203.0,-22.0,-4000.0,122.0,812.0,-526.0,816.0,-1579.0
178.0,-4.0,-3095.0,51.0,-2806.0,-476.0,897.0,-1612.0
-37.0,69.0,-2704.0,-72.0,-4000.0,-565.0,720.0,-1595.0
-288.0,90.0,-1171.0,-14.0,-4000.0,-657.0,481.0,-1579.0
-150.0,49.0,988.0,160.0,-3575.0,-791.0,413.0,-1429.0
-52.0,6.0,2924.0,142.0,-2688.0,-997.0,338.0,-1364.0
-180.0,-28.0,2859.0,67.0,-3474.0,-1180.0,246.0,-1062.0
-480.0,-60.0,2913.0,7.0,-3391.0,-1205.0,-43.0,-859.0
-545.0,-101.0,2730.0,9.0,-4000.0,-1062.0,17.0,-606.0
-438.0,-76.0,2730.0,75.0,-4000.0,-973.0,111.0,-423.0
-484.0,-47.0,4000.0,-14.0,-4000.0,-966.0,-37.0,-153.0
-417.0,-52.0,3496.0,-4.0,-3132.0,-1031.0,-246.0,97.0
-396.0,4.0,-4000.0,126.0,553.0,-1118.0,-345.0,253.0
-501.0,28.0,-4000.0,240.0,1140.0,-1070.0,-485.0,290.0
-209.0,67.0,-4000.0,223.0,-730.0,-1047.0,-611.0,184.0
268.0,31.0,-856.0,77.0,-2561.0,-1075.0,-575.0,153.0
920.0,-75.0,437.0,8.0,-2912.0,-1103.0,-750.0,340.0
1634.0,-115.0,-2698.0,-13.0,-3262.0,-1010.0,-741.0,556.0
1690.0,-174.0,-1914.0,-5.0,-2403.0,-816.0,-832.0,426.0
1116.0,-160.0,-248.0,23.0,1734.0,-707.0,-946.0,426.0
257.0,-141.0,3975.0,-25.0,4000.0,-615.0,-480.0,1207.0
-80.0,-158.0,4000.0,-55.0,4000.0,-565.0,9.0,2437.0
-6.0,-42.0,4000.0,30.0,4000.0,-586.0,155.0,3654.0
-951.0,45.0,3845.0,80.0,4000.0,-507.0,203.0,4000.0
-1658.0,74.0,-320.0,73.0,4000.0,-385.0,361.0,4000.0
-1652.0,99.0,-4000.0,-17.0,4000.0,-178.0,107.0,1914.0
-1782.0,85.0,-3355.0,-8.0,4000.0,-6.0,-196.0,-193.0
-1699.0,52.0,2094.0,134.0,2683.0,268.0,-290.0,-594.0
-1283.0,-38.0,3564.0,207.0,766.0,746.0,-532.0,-1375.0
-589.0,-93.0,-1414.0,248.0,3215.0,1083.0,-846.0,-4000.0
163.0,-15.0,-3290.0,198.0,4000.0,1026.0,-783.0,-4000.0
914.0,93.0,-1414.0,99.0,2941.0,812.0,-481.0,-4000.0
1358.0,151.0,-1765.0,-90.0,-338.0,823.0,-401.0,-1520.0
1791.0,124.0,-2524.0,-102.0,-1512.0,953.0,-2.0,-1495.0
1897.0,40.0,1574.0,120.0,-4000.0,719.0,138.0,-2615.0
1124.0,-2.0,4000.0,236.0,-4000.0,6.0,-15.0,-3089.0
-225.0,-2.0,1003.0,320.0,-4000.0,-665.0,56.0,-3926.0
-909.0,-37.0,-898.0,295.0,-4000.0,-1031.0,69.0,-3844.0
-762.0,-36.0,-4000.0,197.0,-3250.0,-997.0,160.0,-4000.0
-535.0,-10.0,-4000.0,116.0,-2922.0,-838.0,132.0,-4000.0
104.0,-1.0,-4000.0,-14.0,-1951.0,-493.0,-82.0,-4000.0
855.0,53.0,-4000.0,-222.0,-1137.0,0.0,18.0,-4000.0
1017.0,27.0,-3537.0,-409.0,-1310.0,427.0,131.0,-4000.0
760.0,52.0,-2124.0,-560.0,-1508.0,815.0,271.0,-3773.0
1085.0,138.0,-338.0,-652.0,-2806.0,831.0,497.0,955.0
199.0,93.0,3102.0,-586.0,-4000.0,725.0,391.0,3766.0
-1023.0,34.0,4000.0,-466.0,-4000.0,1075.0,416.0,2107.0
-1466.0,70.0,344.0,-379.0,-4000.0,2047.0,481.0,3144.0
-1723.0,103.0,-1452.0,-316.0,-4000.0,2971.0,457.0,4000.0
-1621.0,105.0,-866.0,-125.0,-4000.0,2971.0,481.0,4000.0
-1110.0,152.0,-1297.0,-35.0,-4000.0,2056.0,394.0,3849.0
635.0,157.0,-523.0,-7.0,-4000.0,554.0,386.0,2054.0
986.0,168.0,138.0,26.0,-4000.0,-940.0,355.0,1818.0
322.0,176.0,1571.0,-39.0,-4000.0,-1717.0,457.0,1085.0
-516.0,85.0,1184.0,-17.0,-4000.0,-2144.0,439.0,-3.0
-1300.0,85.0,1257.0,-61.0,-4000.0,-2235.0,246.0,-1135.0
-807.0,70.0,1691.0,12.0,-4000.0,-2105.0,412.0,125.0
-165.0,49.0,1739.0,63.0,-4000.0,-1821.0,348.0,438.0
608.0,51.0,2483.0,35.0,-3456.0,-1096.0,248.0,336.0
1420.0,1.0,2266.0,134.0,-2406.0,-407.0,336.0,2159.0
1254.0,73.0,2418.0,133.0,-351.0,441.0,207.0,2498.0
689.0,86.0,2471.0,92.0,1059.0,1377.0,75.0,1091.0
576.0,89.0,2483.0,94.0,3037.0,1994.0,71.0,-86.0
1246.0,140.0,2081.0,125.0,4000.0,2356.0,5.0,373.0
2157.0,150.0,1608.0,164.0,4000.0,2060.0,-123.0,751.0
1887.0,130.0,1228.0,142.0,4000.0,1325.0,-161.0,438.0
798.0,74.0,703.0,65.0,4000.0,339.0,-145.0,1286.0
320.0,20.0,401.0,72.0,4000.0,-1140.0,-148.0,1585.0
586.0,-96.0,134.0,81.0,4000.0,-2337.0,-163.0,1663.0
651.0,-134.0,99.0,18.0,4000.0,-1949.0,-143.0,1525.0
45.0,-161.0,-28.0,-143.0,4000.0,-1184.0,-141.0,742.0
-492.0,-202.0,223.0,-250.0,4000.0,-570.0,-72.0,434.0
-974.0,-222.0,506.0,-243.0,4000.0,-53.0,-42.0,-31.0
-1214.0,-230.0,606.0,-424.0,4000.0,-214.0,-63.0,261.0
-1271.0,-181.0,661.0,-554.0,4000.0,-167.0,-82.0,955.0
-1260.0,-115.0,502.0,-717.0,4000.0,100.0,1.0,1986.0
-1365.0,-46.0,484.0,-675.0,4000.0,758.0,66.0,2901.0
-1717.0,-101.0,502.0,-263.0,4000.0,1254.0,18.0,2354.0
-1868.0,-139.0,508.0,-92.0,4000.0,1148.0,49.0,1118.0
-1723.0,-89.0,573.0,61.0,4000.0,795.0,19.0,322.0
93.0,-83.0,577.0,27.0,4000.0,367.0,-71.0,-525.0
553.0,-127.0,852.0,-35.0,4000.0,180.0,-135.0,-2035.0
412.0,-160.0,1379.0,84.0,4000.0,147.0,-22.0,-2722.0
772.0,-137.0,1488.0,111.0,4000.0,532.0,1.0,-2617.0
342.0,-100.0,1639.0,55.0,4000.0,961.0,-59.0,-1590.0
530.0,-31.0,1192.0,85.0,4000.0,1124.0,22.0,-301.0
256.0,52.0,-641.0,287.0,2711.0,941.0,28.0,119.0
260.0,148.0,-2047.0,634.0,1417.0,619.0,-45.0,379.0
418.0,189.0,-3083.0,1102.0,1352.0,176.0,-64.0,544.0
346.0,170.0,-3343.0,980.0,1401.0,-175.0,-83.0,890.0
314.0,125.0,-2805.0,504.0,1263.0,-211.0,-192.0,666.0
427.0,109.0,-2253.0,158.0,1140.0,-326.0,-202.0,328.0
705.0,94.0,-1492.0,-311.0,420.0,-450.0,-198.0,-138.0
1175.0,22.0,-782.0,-689.0,672.0,-442.0,-294.0,-778.0
2092.0,-64.0,-493.0,-939.0,1995.0,-289.0,-340.0,-934.0
1319.0,-23.0,-976.0,-888.0,2095.0,-331.0,-428.0,-1269.0
358.0,62.0,-1302.0,-702.0,1097.0,-316.0,-511.0,-1429.0
176.0,-8.0,-812.0,-336.0,47.0,53.0,-450.0,-1607.0
-493.0,-110.0,-129.0,161.0,-1137.0,18.0,-477.0,-1756.0
-719.0,-155.0,-183.0,341.0,-2406.0,-440.0,-533.0,-1829.0
-266.0,-103.0,-338.0,48.0,-3391.0,-597.0,-399.0,-2049.0
1515.0,-15.0,-336.0,-336.0,-4000.0,-529.0,-355.0,-2296.0
1934.0,-24.0,-313.0,-841.0,-4000.0,-550.0,-424.0,-2412.0
52.0,-3.0,128.0,-560.0,-4000.0,-573.0,-250.0,-2460.0
-1039.0,7.0,576.0,-13.0,-4000.0,-327.0,-259.0,-2491.0
-1472.0,-4.0,775.0,-307.0,-4000.0,31.0,-410.0,-2350.0
-2096.0,-52.0,718.0,-448.0,-4000.0,298.0,-224.0,-2346.0
-2051.0,-148.0,465.0,-826.0,-4000.0,315.0,-255.0,-1959.0
-1866.0,-178.0,150.0,-612.0,-4000.0,105.0,-211.0,-1013.0
-1817.0,-179.0,-160.0,59.0,-4000.0,90.0,-123.0,-390.0
-1495.0,-168.0,-320.0,1249.0,-3262.0,112.0,-207.0,148.0
-1670.0,-165.0,-271.0,2086.0,-1058.0,199.0,-216.0,589.0
-1025.0,-114.0,-425.0,1350.0,994.0,497.0,-305.0,499.0
-193.0,14.0,-149.0,1059.0,2516.0,329.0,-275.0,425.0
-215.0,105.0,1053.0,882.0,4000.0,225.0,-262.0,339.0
139.0,138.0,1306.0,142.0,4000.0,146.0,-221.0,1372.0
1293.0,125.0,-112.0,-906.0,4000.0,-216.0,-255.0,3079.0
2264.0,56.0,-1106.0,-1722.0,4000.0,-189.0,-238.0,4000.0
1701.0,18.0,-1794.0,-1484.0,4000.0,-25.0,-154.0,4000.0
1000.0,6.0,-1758.0,-1093.0,4000.0,-30.0,-156.0,4000.0
654.0,37.0,-1468.0,-1552.0,4000.0,-204.0,-69.0,4000.0
-250.0,77.0,-1353.0,-2210.0,4000.0,-147.0,-18.0,4000.0
-506.0,83.0,-873.0,-567.0,4000.0,-185.0,-80.0,3861.0
-354.0,99.0,-433.0,1945.0,4000.0,-289.0,-15.0,3328.0
-53.0,99.0,663.0,2269.0,4000.0,-474.0,132.0,2754.0
465.0,105.0,1068.0,1730.0,4000.0,-982.0,-1.0,2054.0
2192.0,152.0,1003.0,1045.0,4000.0,-1383.0,22.0,1728.0
4000.0,134.0,996.0,-293.0,3150.0,-1568.0,172.0,3291.0
4000.0,85.0,775.0,-1805.0,2513.0,-1605.0,172.0,4000.0
3525.0,10.0,858.0,-1689.0,1474.0,-1357.0,172.0,4000.0
-681.0,-48.0,1127.0,-83.0,556.0,-1357.0,163.0,4000.0
-3022.0,-17.0,1285.0,1367.0,-107.0,-1526.0,162.0,4000.0
-3506.0,-37.0,996.0,1566.0,-253.0,-973.0,197.0,4000.0
-3760.0,-60.0,252.0,142.0,-177.0,-672.0,238.0,4000.0
-2374.0,-64.0,-219.0,-51.0,460.0,113.0,185.0,-195.0
-1918.0,-92.0,-320.0,422.0,1091.0,953.0,181.0,-4000.0
-1950.0,-43.0,-255.0,-424.0,1083.0,1148.0,232.0,-4000.0
-2790.0,-37.0,-494.0,-2015.0,1091.0,1966.0,194.0,-4000.0
-2466.0,5.0,-957.0,-2961.0,1287.0,2425.0,207.0,-4000.0
-1267.0,68.0,-1478.0,-3144.0,1800.0,2812.0,248.0,-4000.0
-999.0,79.0,-1666.0,-3623.0,1638.0,2680.0,334.0,-4000.0
-245.0,99.0,-507.0,-1857.0,1352.0,1994.0,392.0,-4000.0
-76.0,56.0,511.0,1110.0,882.0,1824.0,362.0,-4000.0
361.0,16.0,1029.0,1749.0,201.0,1287.0,366.0,-4000.0
849.0,-25.0,908.0,1879.0,-531.0,788.0,296.0,-2983.0
920.0,-65.0,137.0,2281.0,-1398.0,343.0,171.0,-1508.0
1376.0,-59.0,-643.0,1760.0,-2688.0,-219.0,134.0,-1856.0
1624.0,-88.0,-1288.0,1509.0,-4000.0,-312.0,59.0,-2800.0
1254.0,-100.0,-906.0,1241.0,-4000.0,-80.0,45.0,-3191.0
973.0,-91.0,-291.0,1007.0,-4000.0,-33.0,66.0,-3113.0
1181.0,-67.0,-71.0,1249.0,-4000.0,-63.0,47.0,-2735.0
994.0,-23.0,71.0,616.0,-4000.0,-358.0,97.0,-2617.0
103.0,-18.0,177.0,-409.0,-4000.0,-678.0,73.0,-2863.0
-195.0,-34.0,284.0,-21.0,-4000.0,-1005.0,-24.0,-2412.0
105.0,-25.0,364.0,538.0,-4000.0,-1318.0,-45.0,-1790.0
36.0,-27.0,460.0,455.0,-4000.0,-1056.0,-33.0,-1234.0
-255.0,-26.0,671.0,1145.0,-4000.0,-932.0,-15.0,-575.0
-698.0,27.0,807.0,1786.0,-4000.0,-881.0,76.0,-194.0
-602.0,93.0,506.0,909.0,-4000.0,-716.0,127.0,136.0
-352.0,131.0,-45.0,-2116.0,-4000.0,-680.0,131.0,426.0
-99.0,91.0,-269.0,-2700.0,-4000.0,-345.0,152.0,1052.0
232.0,111.0,2.0,538.0,-4000.0,-387.0,238.0,1573.0
200.0,103.0,178.0,2337.0,-4000.0,-685.0,309.0,1793.0
-145.0,126.0,67.0,2478.0,-4000.0,-1161.0,362.0,1986.0
-880.0,132.0,-141.0,2803.0,-4000.0,-1669.0,441.0,1989.0
-487.0,87.0,-131.0,1954.0,-4000.0,-1375.0,449.0,2154.0
250.0,129.0,172.0,756.0,-4000.0,-1270.0,416.0,2415.0
250.0,106.0,-17.0,-95.0,-4000.0,-1127.0,384.0,2119.0
379.0,68.0,-511.0,-1728.0,-4000.0,-786.0,380.0,1207.0
361.0,-18.0,-281.0,-2907.0,-4000.0,-346.0,376.0,304.0
325.0,-53.0,268.0,-2700.0,-4000.0,339.0,297.0,-98.0
342.0,-36.0,533.0,-223.0,-4000.0,554.0,311.0,144.0
269.0,-80.0,546.0,583.0,-4000.0,536.0,319.0,108.0
118.0,-72.0,654.0,-90.0,-4000.0,738.0,171.0,19.0
17.0,-47.0,1310.0,568.0,-4000.0,1214.0,91.0,332.0
14.0,-32.0,2001.0,459.0,-4000.0,1397.0,2.0,230.0
37.0,-33.0,1302.0,100.0,-4000.0,1704.0,-17.0,131.0
227.0,-40.0,125.0,197.0,-3835.0,1958.0,-54.0,312.0
490.0,-30.0,345.0,327.0,-3701.0,1157.0,-32.0,397.0
589.0,-24.0,502.0,-37.0,-3391.0,315.0,172.0,369.0
369.0,-8.0,385.0,-190.0,-3014.0,-3.0,309.0,596.0
277.0,-14.0,223.0,-625.0,-2095.0,-182.0,238.0,408.0
673.0,-12.0,64.0,-835.0,-1489.0,-489.0,206.0,128.0
843.0,22.0,401.0,-946.0,-686.0,-859.0,177.0,184.0
505.0,43.0,-369.0,-1223.0,97.0,-1607.0,-33.0,-234.0
139.0,45.0,-1134.0,-1235.0,497.0,-1248.0,-349.0,-781.0
-523.0,93.0,-1258.0,-1089.0,1733.0,32.0,-420.0,-1001.0
-1146.0,120.0,-1811.0,-681.0,2972.0,-65.0,-169.0,-562.0
-1495.0,103.0,-1342.0,-645.0,3662.0,-42.0,-178.0,-227.0
-1560.0,152.0,-548.0,-458.0,4000.0,-80.0,246.0,-89.0
-1081.0,150.0,-405.0,-560.0,4000.0,68.0,1084.0,145.0
-261.0,130.0,-409.0,-689.0,4000.0,278.0,1122.0,77.0
2536.0,104.0,-405.0,-711.0,4000.0,144.0,628.0,-22.0
4000.0,82.0,114.0,-962.0,4000.0,180.0,548.0,35.0
2158.0,109.0,278.0,-1200.0,4000.0,48.0,113.0,116.0
-979.0,108.0,46.0,-1146.0,4000.0,542.0,-1432.0,-64.0
-1984.0,124.0,-91.0,-702.0,4000.0,451.0,-2367.0,-479.0
-3099.0,87.0,-225.0,-357.0,4000.0,334.0,-1755.0,-803.0
-2696.0,-53.0,-291.0,2.0,4000.0,601.0,-811.0,-1018.0
-2049.0,-88.0,-298.0,337.0,4000.0,596.0,-615.0,-1135.0
147.0,-66.0,-350.0,598.0,3812.0,681.0,-685.0,-1055.0
3038.0,-57.0,-562.0,779.0,3215.0,673.0,-138.0,-905.0
2545.0,-12.0,-628.0,799.0,2760.0,802.0,637.0,-977.0
-313.0,55.0,-1022.0,842.0,2556.0,994.0,637.0,-1756.0
-1022.0,31.0,-1944.0,974.0,2321.0,896.0,-333.0,-2347.0
-1007.0,-36.0,-2470.0,923.0,1734.0,706.0,-867.0,-2491.0
-2954.0,4.0,-1769.0,915.0,713.0,802.0,-959.0,-3373.0
-2012.0,-92.0,-801.0,1021.0,-1105.0,732.0,-722.0,-4000.0
2922.0,-121.0,-373.0,1039.0,-2806.0,815.0,-317.0,-4000.0
4000.0,-131.0,1053.0,1053.0,-3985.0,801.0,-118.0,-4000.0
1962.0,-236.0,2260.0,1119.0,-4000.0,636.0,73.0,-3178.0
-4000.0,-253.0,2746.0,1302.0,-3988.0,651.0,-375.0,-1632.0
-4000.0,-165.0,3185.0,1306.0,-3327.0,571.0,-587.0,174.0
-3950.0,34.0,2715.0,929.0,-2818.0,486.0,-166.0,1373.0
-1817.0,44.0,2356.0,400.0,-2859.0,343.0,486.0,2029.0
-1392.0,26.0,1379.0,-91.0,-3604.0,92.0,548.0,2819.0
-880.0,83.0,13.0,-362.0,-4000.0,-152.0,554.0,2938.0
-750.0,55.0,-1008.0,-430.0,-4000.0,-102.0,210.0,2999.0
-1951.0,33.0,-1648.0,-332.0,-4000.0,-194.0,-839.0,3014.0
-1827.0,31.0,-1294.0,-5.0,-3446.0,-297.0,-982.0,2575.0
-1430.0,92.0,-617.0,164.0,-2676.0,-266.0,-1054.0,2248.0
-801.0,173.0,40.0,272.0,-2791.0,-276.0,-1533.0,2248.0
-580.0,167.0,474.0,189.0,-2843.0,-108.0,-1648.0,2550.0
-136.0,67.0,657.0,2.0,-2421.0,78.0,-536.0,2689.0
986.0,7.0,284.0,-59.0,-1719.0,110.0,667.0,2561.0
1962.0,-29.0,-1878.0,-433.0,-686.0,-398.0,738.0,1977.0
2028.0,-140.0,-3290.0,-659.0,282.0,-966.0,494.0,1467.0
2067.0,-208.0,-425.0,-717.0,657.0,-1075.0,154.0,925.0
2078.0,-163.0,2474.0,-497.0,454.0,-1075.0,-94.0,401.0
1832.0,-110.0,4000.0,-30.0,293.0,-1047.0,-167.0,-19.0
1897.0,-88.0,4000.0,24.0,338.0,-1237.0,-363.0,-320.0
1507.0,-36.0,4000.0,-162.0,713.0,-1135.0,-459.0,-382.0
935.0,-9.0,2783.0,-314.0,1287.0,-195.0,-216.0,-401.0
854.0,-11.0,1509.0,-346.0,1592.0,462.0,-98.0,-467.0
692.0,-15.0,1237.0,-181.0,1118.0,193.0,-61.0,-622.0
264.0,-45.0,964.0,215.0,285.0,-93.0,134.0,-687.0
150.0,-23.0,556.0,634.0,-19.0,-201.0,329.0,-679.0
473.0,13.0,253.0,784.0,837.0,-293.0,339.0,-650.0
1043.0,-32.0,-932.0,574.0,1666.0,-383.0,439.0,-650.0
920.0,-28.0,-2325.0,447.0,1918.0,-446.0,999.0,-525.0
1026.0,-56.0,-3083.0,292.0,1756.0,-403.0,1548.0,64.0
2343.0,-121.0,-2639.0,-282.0,1091.0,-358.0,1667.0,654.0
4000.0,-153.0,-3408.0,-1101.0,379.0,-284.0,1202.0,751.0
4000.0,-91.0,-4000.0,-1890.0,-679.0,-216.0,1380.0,486.0
3094.0,14.0,-4000.0,-2035.0,-1649.0,-194.0,962.0,91.0
725.0,33.0,-1831.0,-1528.0,-2289.0,-232.0,-1006.0,-47.0
-1096.0,65.0,-511.0,-1101.0,-2806.0,-221.0,-1653.0,-24.0
-3075.0,56.0,891.0,-724.0,-3197.0,-130.0,-548.0,-88.0
-3693.0,38.0,1874.0,-495.0,-3521.0,-57.0,628.0,-380.0
-4000.0,-3.0,2018.0,-475.0,-4000.0,40.0,557.0,-940.0
-4000.0,-31.0,2005.0,-76.0,-4000.0,110.0,809.0,-1432.0
-3870.0,-5.0,840.0,255.0,-3237.0,-23.0,2643.0,-1774.0
-634.0,5.0,-694.0,215.0,1482.0,-139.0,3075.0,-1998.0
4000.0,129.0,-1778.0,194.0,4000.0,-203.0,2255.0,-2121.0
4000.0,312.0,-1106.0,580.0,4000.0,-510.0,2036.0,-2192.0
553.0,376.0,-1166.0,881.0,4000.0,-645.0,1463.0,-1950.0
-3931.0,282.0,-1321.0,799.0,4000.0,-541.0,1259.0,-1709.0
-4000.0,122.0,-1484.0,784.0,4000.0,-447.0,1280.0,-1449.0
-4000.0,4.0,-1862.0,459.0,4000.0,-316.0,1119.0,-508.0
-4000.0,-30.0,-1101.0,125.0,4000.0,-279.0,1084.0,1142.0
-4000.0,-23.0,-190.0,-124.0,3527.0,-362.0,897.0,3031.0
-4000.0,-65.0,1627.0,-259.0,603.0,-308.0,968.0,4000.0
-4000.0,-57.0,3096.0,-149.0,-714.0,-134.0,844.0,4000.0
-4000.0,28.0,3741.0,-116.0,-1333.0,51.0,749.0,3673.0
-2517.0,152.0,3694.0,-160.0,-1442.0,249.0,563.0,3328.0
1767.0,341.0,2730.0,42.0,-599.0,406.0,167.0,3226.0
3298.0,365.0,1517.0,271.0,692.0,541.0,-65.0,3014.0
2393.0,193.0,183.0,205.0,1287.0,592.0,-207.0,2183.0
3845.0,0.0,-1149.0,145.0,1325.0,628.0,-224.0,1468.0
2911.0,8.0,-2175.0,141.0,2124.0,636.0,-137.0,1053.0
709.0,-32.0,-2513.0,179.0,3428.0,586.0,-101.0,686.0
-476.0,-47.0,-2480.0,199.0,3595.0,498.0,-267.0,442.0
-1066.0,27.0,-2072.0,43.0,3410.0,432.0,-250.0,255.0
-1155.0,-29.0,-1279.0,-51.0,4000.0,343.0,-327.0,-153.0
408.0,-87.0,-757.0,-87.0,4000.0,200.0,-489.0,-781.0
2744.0,-131.0,-1683.0,-180.0,4000.0,177.0,-459.0,-1319.0
3432.0,-109.0,-4000.0,-366.0,4000.0,155.0,-485.0,-1577.0
2715.0,-46.0,-4000.0,-560.0,4000.0,126.0,-485.0,-1672.0
2410.0,-21.0,-2513.0,-615.0,4000.0,97.0,-333.0,-1526.0
4000.0,-41.0,846.0,-589.0,4000.0,6.0,-252.0,-1339.0
4000.0,-73.0,4000.0,-489.0,4000.0,37.0,-340.0,-1310.0
2480.0,-87.0,4000.0,-411.0,4000.0,197.0,-323.0,-1208.0
273.0,-38.0,4000.0,-384.0,4000.0,262.0,-113.0,-1208.0
-1652.0,-56.0,4000.0,-241.0,4000.0,-5.0,-42.0,-1115.0
-2011.0,-153.0,3304.0,-178.0,4000.0,-267.0,-298.0,-996.0
-807.0,-85.0,1952.0,-98.0,4000.0,-150.0,89.0,-1013.0
-843.0,90.0,923.0,31.0,4000.0,-182.0,858.0,-889.0
-850.0,111.0,385.0,222.0,4000.0,-537.0,-69.0,-736.0
-2370.0,84.0,-237.0,533.0,4000.0,-685.0,-1206.0,-614.0
-1752.0,82.0,-810.0,675.0,4000.0,-750.0,-1397.0,-496.0
716.0,21.0,-1211.0,777.0,4000.0,-394.0,-1690.0,-297.0
1365.0,-50.0,-1471.0,956.0,4000.0,246.0,-2405.0,-234.0
1701.0,-163.0,-1427.0,832.0,4000.0,660.0,-2339.0,-111.0
3869.0,-209.0,-1362.0,589.0,2947.0,1157.0,-515.0,341.0
4000.0,-234.0,-1362.0,280.0,1759.0,1157.0,-383.0,678.0
3804.0,-226.0,-1333.0,179.0,-92.0,384.0,-900.0,1006.0
4000.0,-164.0,-1093.0,236.0,-1228.0,6.0,-475.0,1346.0
4000.0,-175.0,-1134.0,-102.0,-1333.0,-98.0,-582.0,1468.0
-1866.0,-164.0,-1003.0,-279.0,-1426.0,-349.0,-542.0,1338.0
-4000.0,-71.0,-817.0,-371.0,-1626.0,-123.0,-516.0,935.0
-4000.0,-26.0,-906.0,-571.0,-2341.0,-28.0,-555.0,528.0
-4000.0,-48.0,-820.0,-511.0,-3066.0,146.0,-555.0,369.0
-4000.0,-12.0,-841.0,-133.0,-3639.0,290.0,-542.0,497.0
-4000.0,120.0,-876.0,598.0,-4000.0,162.0,-516.0,414.0
-4000.0,238.0,-580.0,838.0,-4000.0,256.0,-441.0,160.0
-4000.0,331.0,-245.0,642.0,-4000.0,177.0,-403.0,28.0
-4000.0,383.0,-50.0,643.0,-4000.0,210.0,-383.0,-344.0
-3695.0,329.0,57.0,51.0,-4000.0,148.0,-305.0,-553.0
-1296.0,273.0,163.0,-515.0,-4000.0,86.0,-255.0,-622.0
920.0,201.0,186.0,-293.0,-4000.0,93.0,-249.0,-744.0
2211.0,244.0,186.0,99.0,-4000.0,67.0,-211.0,-627.0
3973.0,103.0,231.0,-63.0,-4000.0,93.0,-238.0,-537.0
4000.0,-92.0,263.0,-230.0,-4000.0,50.0,-317.0,-534.0
4000.0,-81.0,290.0,-381.0,-4000.0,101.0,284.0,-343.0
4000.0,-39.0,276.0,-523.0,-4000.0,143.0,824.0,-64.0
-1560.0,44.0,223.0,-318.0,-4000.0,261.0,637.0,-158.0
-3693.0,-65.0,284.0,-239.0,-4000.0,319.0,870.0,-47.0
-4000.0,-150.0,345.0,-150.0,-4000.0,460.0,793.0,249.0
-3034.0,-187.0,410.0,-164.0,-4000.0,559.0,-1233.0,106.0
-1534.0,-218.0,450.0,62.0,-4000.0,396.0,-2858.0,44.0
357.0,-72.0,382.0,236.0,-4000.0,311.0,-2080.0,-84.0
-589.0,21.0,364.0,310.0,-4000.0,404.0,-1783.0,-134.0
-1298.0,36.0,318.0,452.0,-4000.0,506.0,-2649.0,-273.0
825.0,60.0,225.0,430.0,-4000.0,394.0,-420.0,-522.0
907.0,135.0,228.0,245.0,-4000.0,276.0,2944.0,-362.0
1637.0,73.0,163.0,27.0,-4000.0,210.0,2322.0,-333.0
3635.0,-136.0,-112.0,64.0,-4000.0,139.0,1645.0,-169.0
3884.0,-201.0,-490.0,98.0,-4000.0,155.0,2364.0,23.0
-453.0,-282.0,-405.0,67.0,-4000.0,175.0,2309.0,169.0
-2721.0,-253.0,271.0,19.0,-4000.0,160.0,1379.0,-3.0
-1261.0,-175.0,484.0,-69.0,-4000.0,111.0,183.0,-370.0
-2051.0,-220.0,415.0,-191.0,-4000.0,33.0,132.0,-529.0
-1457.0,-220.0,142.0,-284.0,-4000.0,-114.0,-750.0,-979.0
-604.0,-206.0,-158.0,-284.0,-4000.0,-262.0,-1462.0,-1245.0
-360.0,-113.0,30.0,-161.0,-4000.0,-385.0,-707.0,-1511.0
-255.0,-40.0,60.0,-133.0,-4000.0,-375.0,303.0,-1644.0
-236.0,67.0,-247.0,-129.0,-4000.0,-228.0,506.0,-1469.0
603.0,36.0,-741.0,-182.0,-3586.0,-217.0,467.0,-1339.0
790.0,-38.0,-466.0,-393.0,-1188.0,-221.0,693.0,-671.0
692.0,25.0,231.0,-397.0,2048.0,-94.0,1027.0,461.0
553.0,31.0,325.0,-263.0,4000.0,-26.0,1396.0,214.0
2483.0,-2.0,371.0,-158.0,4000.0,-116.0,1249.0,-692.0
4000.0,-85.0,258.0,-39.0,4000.0,-118.0,1249.0,-301.0
4000.0,-63.0,231.0,55.0,4000.0,-48.0,669.0,-287.0
4000.0,-35.0,258.0,56.0,4000.0,-58.0,598.0,106.0
4000.0,-4.0,217.0,65.0,4000.0,1.0,468.0,677.0
4000.0,52.0,345.0,40.0,4000.0,180.0,99.0,992.0
-1479.0,170.0,431.0,10.0,4000.0,280.0,105.0,1585.0
-4000.0,379.0,385.0,51.0,4000.0,414.0,-25.0,1663.0
-4000.0,305.0,57.0,85.0,4000.0,480.0,132.0,1924.0
-4000.0,152.0,-50.0,36.0,4000.0,394.0,196.0,1901.0
-4000.0,182.0,-140.0,-21.0,4000.0,345.0,866.0,1728.0
-4000.0,99.0,-243.0,10.0,4000.0,203.0,1353.0,1573.0
-4000.0,24.0,-159.0,-63.0,4000.0,123.0,1849.0,1462.0
-4000.0,-8.0,-596.0,-200.0,4000.0,-14.0,1721.0,1326.0
-4000.0,-18.0,-1779.0,-217.0,4000.0,-156.0,1011.0,1112.0
-3619.0,93.0,-1878.0,-157.0,4000.0,-306.0,464.0,1091.0
428.0,74.0,395.0,34.0,4000.0,-602.0,-685.0,947.0
4000.0,-104.0,1739.0,28.0,4000.0,-722.0,-1397.0,778.0
4000.0,-244.0,1703.0,-336.0,3659.0,-706.0,-2495.0,634.0
4000.0,-73.0,1015.0,-617.0,967.0,-620.0,-4000.0,621.0
517.0,87.0,523.0,-737.0,-1823.0,-428.0,-4000.0,660.0
-1130.0,160.0,976.0,-571.0,-4000.0,65.0,-3106.0,654.0
-292.0,131.0,996.0,-282.0,-4000.0,347.0,-1228.0,609.0
1755.0,33.0,1159.0,-112.0,-4000.0,107.0,-1120.0,474.0
3330.0,121.0,728.0,5.0,-4000.0,445.0,-611.0,348.0
4000.0,149.0,476.0,150.0,-4000.0,439.0,660.0,213.0
4000.0,197.0,-466.0,457.0,-4000.0,202.0,2814.0,142.0
4000.0,318.0,-1348.0,500.0,-4000.0,315.0,1931.0,138.0
-1602.0,282.0,-1036.0,320.0,-4000.0,234.0,-1397.0,134.0
-4000.0,109.0,-585.0,303.0,-4000.0,341.0,-2443.0,120.0
-1733.0,-10.0,311.0,255.0,-4000.0,183.0,-2549.0,86.0
-3164.0,-155.0,178.0,243.0,-4000.0,176.0,-859.0,43.0
-4000.0,-181.0,229.0,323.0,-4000.0,265.0,622.0,-87.0
-4000.0,-97.0,219.0,264.0,-4000.0,498.0,818.0,-39.0
-4000.0,28.0,-381.0,215.0,-3754.0,651.0,667.0,-83.0
-4000.0,152.0,-544.0,221.0,-3445.0,351.0,637.0,-262.0
-954.0,144.0,-95.0,106.0,-3079.0,441.0,433.0,-235.0
342.0,132.0,671.0,-36.0,-2843.0,548.0,-65.0,-401.0
499.0,24.0,385.0,-48.0,-2290.0,433.0,238.0,-511.0
494.0,-81.0,53.0,-1.0,-1797.0,343.0,210.0,-506.0
1102.0,-122.0,491.0,1.0,-1980.0,155.0,311.0,-602.0
1766.0,-141.0,317.0,-36.0,-1795.0,-133.0,356.0,-659.0
2452.0,-131.0,-316.0,-168.0,-1361.0,-94.0,772.0,-720.0
3314.0,-161.0,-159.0,-277.0,-1319.0,18.0,832.0,-718.0
2846.0,-104.0,13.0,-296.0,-1064.0,3.0,543.0,-630.0
2809.0,-74.0,101.0,-255.0,-659.0,77.0,268.0,-601.0
2650.0,-79.0,288.0,-247.0,-144.0,42.0,9.0,-622.0
1637.0,-26.0,492.0,-172.0,92.0,-13.0,294.0,-541.0
920.0,14.0,577.0,-116.0,335.0,-39.0,206.0,-435.0
1110.0,-73.0,-29.0,-115.0,1292.0,-411.0,376.0,-427.0
1116.0,-101.0,-369.0,-102.0,2060.0,-722.0,1007.0,-382.0
920.0,-98.0,-413.0,-143.0,2646.0,-575.0,1801.0,-313.0
1108.0,-169.0,288.0,-54.0,3281.0,-468.0,2058.0,-366.0
929.0,-183.0,1497.0,60.0,3541.0,-419.0,942.0,-353.0
888.0,-234.0,1127.0,31.0,3707.0,-773.0,-262.0,-291.0
465.0,-286.0,890.0,-69.0,3606.0,-940.0,-1184.0,-211.0
50.0,-264.0,1794.0,-44.0,3606.0,-141.0,-1648.0,-33.0
64.0,-171.0,246.0,75.0,3747.0,681.0,-876.0,213.0
46.0,-137.0,-1881.0,116.0,3744.0,248.0,613.0,327.0
382.0,-108.0,-2782.0,142.0,3332.0,-963.0,1902.0,409.0
1959.0,-95.0,-3420.0,81.0,2646.0,-997.0,1288.0,686.0
2145.0,-117.0,-2704.0,35.0,2357.0,-188.0,-1332.0,1207.0
-1240.0,-12.0,-2039.0,92.0,1983.0,-326.0,-2536.0,2029.0
-2564.0,73.0,-1231.0,168.0,1786.0,-1135.0,-1914.0,1901.0
-1882.0,83.0,-1193.0,150.0,1734.0,-1140.0,-1551.0,1338.0
-1698.0,70.0,-976.0,131.0,1445.0,-939.0,-607.0,1207.0
-654.0,66.0,716.0,74.0,1213.0,-834.0,506.0,449.0
-974.0,38.0,2356.0,-6.0,1140.0,-403.0,1164.0,142.0
-1227.0,45.0,2054.0,69.0,701.0,-362.0,903.0,-33.0
-95.0,168.0,-541.0,-4.0,86.0,-194.0,66.0,-380.0
-4.0,162.0,-1795.0,-97.0,165.0,37.0,62.0,-480.0
167.0,89.0,-2260.0,-137.0,-92.0,144.0,267.0,-715.0
353.0,155.0,-2123.0,-149.0,-614.0,220.0,445.0,-683.0
204.0,290.0,-1292.0,-118.0,-999.0,303.0,858.0,-909.0
435.0,328.0,-572.0,-72.0,-1573.0,622.0,1274.0,-1241.0
316.0,335.0,512.0,6.0,-2147.0,627.0,1330.0,-1790.0
375.0,386.0,793.0,-22.0,-3054.0,693.0,1149.0,-2472.0
172.0,359.0,628.0,-65.0,-3444.0,734.0,1519.0,-3007.0
1025.0,347.0,415.0,-103.0,-3107.0,823.0,2321.0,-3610.0
1018.0,223.0,1184.0,-162.0,-2444.0,961.0,3103.0,-4000.0
-824.0,89.0,2225.0,-214.0,-1802.0,941.0,1825.0,-4000.0
-1717.0,102.0,2081.0,-177.0,-2374.0,887.0,-1048.0,-4000.0
-1605.0,79.0,1703.0,-166.0,-2953.0,636.0,-2776.0,-4000.0
-909.0,-1.0,850.0,-115.0,-2925.0,467.0,-4000.0,-3581.0
-260.0,-167.0,-74.0,-111.0,-3132.0,341.0,-4000.0,-2676.0
-702.0,-328.0,-393.0,-167.0,-3327.0,271.0,-579.0,-1671.0
-1603.0,-275.0,112.0,-181.0,-2741.0,346.0,-60.0,-870.0
-1416.0,-236.0,708.0,-140.0,-1573.0,415.0,844.0,-240.0
-1227.0,-244.0,410.0,-97.0,-877.0,267.0,504.0,279.0
-1045.0,-294.0,455.0,-86.0,-993.0,126.0,376.0,825.0
-470.0,-478.0,299.0,-70.0,-1552.0,13.0,1528.0,1326.0
74.0,-456.0,-315.0,-69.0,-1552.0,13.0,1410.0,1660.0
559.0,-233.0,-711.0,-48.0,-1584.0,236.0,-19.0,1932.0
488.0,85.0,-1035.0,-82.0,-1951.0,50.0,-1264.0,2248.0
188.0,256.0,-1229.0,-61.0,-1768.0,-240.0,-1851.0,2498.0
228.0,288.0,-425.0,13.0,-1665.0,-351.0,-902.0,2485.0
371.0,404.0,-89.0,113.0,-1606.0,-440.0,-501.0,2640.0
260.0,252.0,-1284.0,195.0,-1055.0,-423.0,-1043.0,2754.0
37.0,77.0,-1700.0,131.0,-225.0,-375.0,-646.0,2770.0
-143.0,2.0,-711.0,38.0,-183.0,-415.0,-323.0,2835.0
131.0,-426.0,1639.0,-63.0,-490.0,-419.0,1076.0,2689.0
508.0,-895.0,988.0,7.0,-267.0,-371.0,1399.0,2284.0
458.0,-1002.0,-1544.0,96.0,15.0,-416.0,999.0,1621.0
391.0,-931.0,-2319.0,72.0,273.0,-324.0,571.0,992.0
521.0,-509.0,-2303.0,16.0,47.0,-326.0,327.0,786.0
538.0,-242.0,-1093.0,-65.0,208.0,-384.0,637.0,859.0
361.0,55.0,-299.0,-69.0,789.0,-323.0,949.0,816.0
-21.0,443.0,559.0,-20.0,471.0,-304.0,2255.0,927.0
-427.0,508.0,785.0,77.0,206.0,-279.0,3347.0,881.0
-637.0,621.0,734.0,69.0,-679.0,-211.0,2814.0,1006.0
-712.0,542.0,741.0,49.0,-1534.0,-145.0,-680.0,1568.0
-616.0,1103.0,878.0,51.0,-978.0,-157.0,-4000.0,2119.0
-518.0,1452.0,1756.0,0.0,-26.0,-161.0,-4000.0,2624.0
-392.0,976.0,1106.0,-1.0,491.0,-162.0,-4000.0,3134.0
-237.0,577.0,719.0,-82.0,415.0,-145.0,-1897.0,3812.0
-55.0,313.0,857.0,-160.0,561.0,-157.0,2255.0,4000.0
85.0,1246.0,781.0,-201.0,76.0,-182.0,2681.0,4000.0
114.0,2234.0,657.0,-185.0,-221.0,-155.0,29.0,4000.0
127.0,2233.0,546.0,-81.0,-434.0,-167.0,921.0,4000.0
116.0,2857.0,663.0,7.0,-556.0,-192.0,989.0,4000.0
452.0,1945.0,205.0,51.0,-116.0,-163.0,1149.0,2835.0
973.0,-1095.0,91.0,40.0,-98.0,-118.0,2942.0,988.0
961.0,-2450.0,92.0,115.0,668.0,-89.0,2321.0,-909.0
509.0,-2452.0,-206.0,146.0,1124.0,-41.0,954.0,-2128.0
-7.0,-2816.0,-285.0,112.0,988.0,-70.0,-1848.0,-2812.0
