155.0,95.0,251.0,494.0,242.0,-548.0,-4000.0,-3001.0
183.0,182.0,113.0,663.0,85.0,-639.0,-4000.0,-3309.0
176.0,282.0,-94.0,290.0,83.0,-651.0,-4000.0,-3671.0
155.0,315.0,-119.0,-76.0,202.0,-665.0,-4000.0,-2493.0
149.0,327.0,-63.0,-513.0,249.0,-630.0,-4000.0,-1612.0
157.0,228.0,-128.0,-984.0,325.0,-672.0,-4000.0,-1206.0
192.0,92.0,-188.0,-1114.0,259.0,-727.0,-4000.0,-67.0
277.0,-60.0,-279.0,-849.0,-36.0,-783.0,-3106.0,629.0
367.0,-160.0,-237.0,-462.0,-616.0,-897.0,-2114.0,955.0
563.0,-104.0,-182.0,-279.0,-987.0,-905.0,-1848.0,1085.0
804.0,10.0,-193.0,-75.0,-934.0,-875.0,-1673.0,1142.0
654.0,68.0,-171.0,-50.0,-698.0,-741.0,-1881.0,1541.0
-125.0,29.0,-145.0,13.0,-234.0,-532.0,-1950.0,1792.0
-850.0,28.0,-22.0,81.0,-31.0,-255.0,-1793.0,1439.0
-1001.0,-99.0,256.0,166.0,-311.0,-116.0,-1441.0,760.0
32.0,-193.0,467.0,363.0,-616.0,-91.0,-1107.0,739.0
1226.0,-165.0,383.0,352.0,-531.0,-1.0,-917.0,474.0
760.0,-118.0,211.0,223.0,-372.0,201.0,-582.0,-33.0
-274.0,57.0,284.0,84.0,-531.0,628.0,-6.0,-274.0
-974.0,215.0,374.0,52.0,-549.0,1083.0,352.0,-217.0
-1280.0,273.0,443.0,131.0,-323.0,1531.0,132.0,-16.0
-1218.0,227.0,560.0,298.0,-534.0,1905.0,56.0,-101.0
-1221.0,121.0,467.0,324.0,-1012.0,2164.0,282.0,-95.0
-974.0,27.0,73.0,255.0,-1306.0,2360.0,368.0,123.0
-880.0,56.0,-271.0,164.0,-1333.0,2490.0,346.0,355.0
-712.0,70.0,-336.0,150.0,-1488.0,2568.0,49.0,212.0
-323.0,73.0,-216.0,197.0,-1918.0,2580.0,-1201.0,190.0
97.0,181.0,-218.0,118.0,-2224.0,2645.0,-3017.0,442.0
351.0,217.0,-596.0,11.0,-2454.0,2577.0,-2093.0,955.0
-234.0,288.0,-814.0,-38.0,-2496.0,2308.0,1670.0,1598.0
-745.0,353.0,-393.0,-25.0,-2870.0,1969.0,3203.0,1698.0
-124.0,280.0,38.0,-74.0,-3661.0,1601.0,2956.0,1091.0
399.0,216.0,150.0,-17.0,-4000.0,1188.0,2647.0,499.0
375.0,186.0,246.0,83.0,-4000.0,725.0,1735.0,159.0
569.0,158.0,181.0,99.0,-4000.0,374.0,1695.0,69.0
546.0,140.0,150.0,88.0,-4000.0,19.0,1581.0,-78.0
412.0,95.0,231.0,73.0,-4000.0,-373.0,1843.0,-370.0
250.0,90.0,212.0,175.0,-2212.0,-570.0,2114.0,-410.0
209.0,41.0,144.0,366.0,480.0,-703.0,1866.0,-592.0
303.0,-37.0,146.0,329.0,3102.0,-810.0,1800.0,-605.0
136.0,-80.0,100.0,199.0,4000.0,-856.0,1575.0,-471.0
180.0,-125.0,107.0,102.0,4000.0,-722.0,1418.0,-620.0
260.0,-127.0,100.0,-34.0,4000.0,-417.0,1052.0,-818.0
334.0,-160.0,39.0,-89.0,4000.0,-442.0,687.0,-630.0
371.0,-202.0,96.0,-102.0,4000.0,-591.0,51.0,-534.0
285.0,-163.0,63.0,-145.0,4000.0,-665.0,-379.0,-999.0
211.0,-105.0,-20.0,-183.0,4000.0,-678.0,498.0,-1180.0
90.0,-137.0,45.0,-110.0,4000.0,-665.0,1410.0,-889.0
5.0,-161.0,223.0,-87.0,1930.0,-729.0,1580.0,-353.0
-82.0,-143.0,152.0,-33.0,70.0,-630.0,1605.0,-114.0
-90.0,-91.0,-32.0,-26.0,-1007.0,-514.0,1214.0,583.0
-74.0,-59.0,-91.0,-146.0,-1898.0,-419.0,889.0,1242.0
-47.0,-43.0,-52.0,-220.0,-2368.0,-339.0,832.0,1177.0
-66.0,0.0,630.0,-301.0,-2571.0,-227.0,759.0,1932.0
61.0,13.0,1890.0,-320.0,-2729.0,-101.0,590.0,2302.0
287.0,20.0,2746.0,-279.0,-2561.0,40.0,189.0,2445.0
235.0,-59.0,2095.0,-95.0,-2531.0,230.0,288.0,2313.0
269.0,-78.0,173.0,105.0,-2561.0,349.0,999.0,1977.0
365.0,16.0,-1427.0,95.0,-2676.0,469.0,1801.0,1727.0
214.0,6.0,-2110.0,124.0,-2598.0,441.0,1983.0,1247.0
68.0,-52.0,-1992.0,142.0,-2122.0,309.0,1288.0,916.0
-44.0,-46.0,-1695.0,116.0,-1978.0,99.0,6.0,408.0
-185.0,-4.0,-898.0,126.0,-2063.0,-114.0,-972.0,286.0
-197.0,-14.0,160.0,99.0,-1853.0,-268.0,-745.0,296.0
-190.0,-37.0,-17.0,96.0,-1572.0,-394.0,-78.0,584.0
-183.0,-72.0,-833.0,112.0,-1671.0,-442.0,120.0,784.0
32.0,-70.0,-2021.0,138.0,-1463.0,-464.0,183.0,902.0
243.0,-18.0,-2953.0,175.0,-1007.0,-423.0,102.0,1176.0
281.0,10.0,-2627.0,260.0,-746.0,-391.0,139.0,1460.0
408.0,15.0,-2073.0,382.0,-543.0,-255.0,1072.0,1989.0
660.0,19.0,-1701.0,895.0,-518.0,-224.0,1548.0,2054.0
514.0,-26.0,-885.0,1731.0,-189.0,-313.0,1353.0,1989.0
110.0,-134.0,-212.0,1684.0,-125.0,-332.0,930.0,2442.0
-43.0,-122.0,75.0,687.0,-241.0,-423.0,356.0,2807.0
-497.0,-73.0,121.0,-322.0,-92.0,-453.0,-424.0,2640.0
-681.0,-99.0,110.0,-1109.0,-73.0,-442.0,-1006.0,2624.0
-610.0,-125.0,760.0,-1565.0,-15.0,-394.0,-839.0,3002.0
-797.0,-133.0,779.0,-1539.0,-421.0,-358.0,-542.0,3898.0
-649.0,-159.0,597.0,-1435.0,-709.0,-354.0,73.0,4000.0
-599.0,-105.0,823.0,-1069.0,-622.0,-262.0,1143.0,4000.0
-343.0,-39.0,785.0,-571.0,-494.0,-154.0,1705.0,4000.0
-80.0,-41.0,923.0,-260.0,-537.0,5.0,1010.0,3469.0
-45.0,1.0,988.0,26.0,-577.0,153.0,250.0,2041.0
113.0,12.0,923.0,244.0,-523.0,246.0,-66.0,314.0
145.0,147.0,828.0,356.0,-333.0,315.0,-485.0,-1970.0
144.0,331.0,728.0,258.0,-64.0,339.0,-582.0,-3988.0
72.0,346.0,651.0,181.0,-380.0,361.0,-489.0,-4000.0
6.0,286.0,642.0,51.0,-319.0,368.0,-550.0,-4000.0
10.0,186.0,683.0,63.0,208.0,347.0,-565.0,-4000.0
76.0,33.0,611.0,128.0,575.0,290.0,-587.0,-4000.0
34.0,-59.0,627.0,99.0,766.0,209.0,-489.0,-4000.0
-132.0,-152.0,541.0,109.0,920.0,95.0,-393.0,-4000.0
-274.0,-244.0,441.0,63.0,1009.0,-81.0,-459.0,-4000.0
-271.0,-259.0,318.0,-149.0,1077.0,-216.0,-402.0,-3667.0
-182.0,-281.0,120.0,-306.0,1222.0,-257.0,-249.0,-4000.0
-86.0,-287.0,35.0,-300.0,920.0,-238.0,-179.0,-3675.0
42.0,-278.0,-15.0,-262.0,831.0,-89.0,-35.0,-3923.0
85.0,-227.0,-161.0,-201.0,823.0,15.0,-350.0,-3904.0
128.0,-199.0,-234.0,-159.0,692.0,9.0,-1323.0,-4000.0
154.0,-165.0,-141.0,-252.0,843.0,-24.0,-2173.0,-4000.0
255.0,6.0,-82.0,-549.0,706.0,-188.0,-1878.0,-3915.0
342.0,135.0,35.0,-336.0,586.0,-243.0,-1006.0,-3545.0
228.0,209.0,164.0,-9.0,424.0,-81.0,-355.0,-2928.0
59.0,188.0,225.0,518.0,245.0,-30.0,102.0,-2670.0
42.0,160.0,242.0,1631.0,245.0,-120.0,120.0,-2165.0
-50.0,147.0,207.0,2010.0,272.0,-61.0,291.0,-1801.0
-136.0,112.0,165.0,1274.0,325.0,-26.0,155.0,-1442.0
-84.0,99.0,89.0,320.0,106.0,-53.0,537.0,-1671.0
-111.0,-31.0,96.0,-359.0,-148.0,-112.0,1208.0,-1762.0
-179.0,-111.0,59.0,-595.0,-313.0,-204.0,1184.0,-1772.0
-195.0,-45.0,-21.0,-639.0,-486.0,-108.0,1013.0,-1672.0
-65.0,32.0,-137.0,-906.0,-399.0,-32.0,805.0,-736.0
0.0,114.0,-198.0,-849.0,-270.0,7.0,824.0,197.0
30.0,197.0,-233.0,-1081.0,-350.0,131.0,802.0,1338.0
72.0,239.0,-281.0,-1557.0,-443.0,177.0,875.0,3014.0
55.0,363.0,-230.0,-1435.0,-315.0,144.0,850.0,4000.0
37.0,522.0,-157.0,-1043.0,-42.0,135.0,877.0,4000.0
15.0,577.0,-154.0,-523.0,153.0,110.0,962.0,4000.0
33.0,485.0,-158.0,-182.0,171.0,113.0,948.0,4000.0
-22.0,337.0,-93.0,134.0,104.0,136.0,1070.0,4000.0
-62.0,75.0,-74.0,341.0,78.0,158.0,1271.0,4000.0
-42.0,-188.0,-44.0,410.0,61.0,233.0,954.0,3996.0
-39.0,-261.0,-30.0,402.0,105.0,217.0,598.0,3784.0
-37.0,-353.0,-93.0,345.0,205.0,170.0,658.0,3458.0
-41.0,-310.0,-82.0,325.0,314.0,171.0,221.0,3291.0
4.0,-333.0,-47.0,193.0,406.0,148.0,-167.0,3096.0
39.0,-379.0,-30.0,152.0,361.0,122.0,-620.0,2705.0
86.0,-427.0,-67.0,87.0,176.0,131.0,-912.0,2313.0
139.0,-410.0,-164.0,32.0,69.0,124.0,-250.0,1914.0
127.0,-166.0,-210.0,77.0,126.0,101.0,-114.0,1595.0
39.0,-89.0,-253.0,127.0,208.0,56.0,-676.0,1411.0
-83.0,-27.0,-198.0,187.0,288.0,47.0,-536.0,1307.0
39.0,3.0,-79.0,142.0,257.0,18.0,-404.0,1091.0
215.0,2.0,-49.0,-64.0,168.0,-15.0,-331.0,1026.0
209.0,38.0,-41.0,-87.0,122.0,6.0,158.0,921.0
250.0,32.0,-30.0,193.0,3.0,-23.0,228.0,877.0
209.0,54.0,3.0,-80.0,-6.0,-48.0,248.0,798.0
98.0,79.0,2.0,-630.0,177.0,-104.0,86.0,660.0
0.0,74.0,49.0,-654.0,242.0,-135.0,-129.0,426.0
-1.0,95.0,73.0,-507.0,222.0,-215.0,-273.0,-108.0
21.0,170.0,95.0,-220.0,178.0,-273.0,-442.0,190.0
13.0,254.0,95.0,168.0,187.0,-192.0,-485.0,988.0
-11.0,502.0,23.0,276.0,261.0,-37.0,-587.0,976.0
-111.0,686.0,23.0,149.0,275.0,81.0,-439.0,-6.0
-195.0,579.0,28.0,179.0,137.0,104.0,-180.0,-859.0
-288.0,500.0,24.0,211.0,24.0,100.0,22.0,-1213.0
-284.0,264.0,-36.0,356.0,53.0,33.0,66.0,-1430.0
-248.0,11.0,-25.0,394.0,34.0,12.0,105.0,-1632.0
-193.0,-6.0,63.0,317.0,118.0,19.0,94.0,-1904.0
-113.0,-222.0,178.0,402.0,253.0,50.0,17.0,-983.0
-74.0,-509.0,207.0,392.0,318.0,2.0,61.0,-679.0
-28.0,-700.0,141.0,362.0,314.0,-51.0,-28.0,-932.0
15.0,-696.0,256.0,227.0,290.0,1.0,-255.0,-710.0
42.0,-631.0,828.0,172.0,310.0,27.0,-390.0,-889.0
37.0,-665.0,1284.0,258.0,373.0,-73.0,-308.0,-818.0
34.0,-650.0,585.0,341.0,364.0,-152.0,-282.0,-724.0
25.0,-149.0,-218.0,251.0,300.0,-108.0,-325.0,-476.0
17.0,448.0,-544.0,87.0,277.0,-65.0,-592.0,-194.0
25.0,436.0,-814.0,-1.0,345.0,83.0,-731.0,-67.0
47.0,346.0,-688.0,-45.0,385.0,170.0,-275.0,255.0
64.0,266.0,-538.0,-49.0,324.0,230.0,114.0,474.0
70.0,316.0,-585.0,-24.0,201.0,358.0,158.0,538.0
71.0,305.0,-529.0,-11.0,102.0,427.0,209.0,455.0
74.0,203.0,-263.0,-39.0,28.0,510.0,429.0,312.0
98.0,117.0,-454.0,-63.0,-183.0,551.0,299.0,165.0
76.0,65.0,-645.0,-162.0,-547.0,563.0,-67.0,76.0
49.0,60.0,-572.0,-218.0,-877.0,563.0,-15.0,-324.0
28.0,-7.0,-489.0,-265.0,-913.0,441.0,-31.0,-909.0
17.0,-2.0,-354.0,-282.0,-920.0,283.0,-42.0,-1191.0
20.0,13.0,-308.0,-275.0,-797.0,158.0,-17.0,-1324.0
53.0,51.0,-106.0,-313.0,-677.0,73.0,-27.0,-905.0
208.0,85.0,97.0,-324.0,-730.0,-16.0,-58.0,-583.0
240.0,102.0,238.0,-255.0,-596.0,-320.0,-122.0,-781.0
23.0,105.0,256.0,-110.0,-621.0,-516.0,-111.0,-996.0
-128.0,115.0,202.0,-166.0,-677.0,-485.0,-176.0,-1298.0
-229.0,115.0,124.0,-154.0,-652.0,-685.0,-179.0,-1387.0
-327.0,82.0,215.0,-143.0,-649.0,-750.0,-193.0,-1206.0
-371.0,40.0,297.0,-153.0,-549.0,-641.0,-240.0,-1375.0
-359.0,-79.0,241.0,-87.0,-449.0,-449.0,-318.0,-1274.0
-241.0,-160.0,360.0,-110.0,-411.0,-106.0,-307.0,-1143.0
-172.0,-155.0,225.0,-141.0,-356.0,267.0,-139.0,-1322.0
-66.0,-118.0,-151.0,-178.0,-133.0,176.0,-14.0,-723.0
-31.0,-105.0,-292.0,-181.0,128.0,42.0,16.0,-90.0
-37.0,-84.0,-348.0,-187.0,237.0,866.0,-37.0,174.0
13.0,-72.0,-350.0,-110.0,348.0,1198.0,-84.0,922.0
-41.0,-76.0,-177.0,-91.0,522.0,876.0,-21.0,1924.0
-46.0,-39.0,-122.0,-113.0,553.0,677.0,-27.0,2284.0
-106.0,-24.0,23.0,-87.0,556.0,455.0,-113.0,2094.0
-122.0,9.0,223.0,-87.0,603.0,349.0,-208.0,941.0
-55.0,2.0,241.0,-84.0,654.0,177.0,-196.0,487.0
-15.0,-8.0,215.0,-36.0,668.0,140.0,-131.0,1899.0
66.0,12.0,85.0,30.0,575.0,75.0,-194.0,2051.0
74.0,77.0,21.0,34.0,524.0,3.0,-257.0,5.0
100.0,290.0,-34.0,120.0,438.0,-28.0,-304.0,-3066.0
176.0,471.0,-49.0,285.0,361.0,-91.0,-184.0,-3734.0
214.0,615.0,30.0,548.0,344.0,-130.0,33.0,-3452.0
143.0,998.0,134.0,915.0,320.0,-251.0,59.0,-4000.0
126.0,817.0,344.0,756.0,245.0,-565.0,137.0,-4000.0
155.0,-318.0,572.0,-523.0,165.0,-991.0,100.0,-3569.0
169.0,-566.0,760.0,-2195.0,93.0,-1010.0,34.0,-390.0
188.0,-483.0,781.0,-2855.0,36.0,-780.0,380.0,4000.0
144.0,-730.0,598.0,-1610.0,80.0,-480.0,481.0,4000.0
184.0,-495.0,474.0,-233.0,102.0,-208.0,355.0,4000.0
295.0,180.0,362.0,686.0,137.0,185.0,329.0,4000.0
306.0,1097.0,178.0,1302.0,101.0,620.0,183.0,4000.0
269.0,1077.0,288.0,1175.0,48.0,628.0,68.0,2739.0
281.0,640.0,334.0,1501.0,72.0,433.0,25.0,1053.0
161.0,-155.0,225.0,1684.0,41.0,65.0,28.0,817.0
-32.0,-822.0,166.0,1619.0,72.0,-600.0,-19.0,290.0
-215.0,-1507.0,-44.0,622.0,50.0,-899.0,-68.0,-539.0
-439.0,-2307.0,-171.0,-768.0,28.0,-861.0,-66.0,-846.0
-469.0,-1402.0,-239.0,-1151.0,-16.0,-973.0,-10.0,-1374.0
-407.0,751.0,-257.0,-1044.0,54.0,-875.0,39.0,-1404.0
-343.0,1380.0,-206.0,-833.0,95.0,-393.0,-4.0,-1743.0
-201.0,-467.0,-188.0,-621.0,6.0,233.0,-5.0,-1384.0
-152.0,-1509.0,-233.0,-271.0,8.0,296.0,-20.0,-928.0
-110.0,-1415.0,-282.0,-11.0,21.0,163.0,-12.0,-692.0
-39.0,-736.0,-190.0,441.0,41.0,348.0,39.0,-452.0
-49.0,471.0,-203.0,583.0,42.0,445.0,-15.0,-201.0
14.0,1683.0,-298.0,406.0,69.0,427.0,-86.0,-25.0
89.0,1778.0,-247.0,433.0,153.0,355.0,-128.0,-156.0
93.0,576.0,-193.0,290.0,179.0,178.0,-137.0,-8.0
13.0,-300.0,-129.0,276.0,206.0,44.0,-125.0,-29.0
-144.0,-570.0,-82.0,382.0,129.0,21.0,-73.0,-147.0
-262.0,-206.0,-116.0,251.0,37.0,2.0,-24.0,-72.0
-274.0,-479.0,-133.0,223.0,60.0,24.0,-20.0,-83.0
-142.0,-613.0,-133.0,227.0,60.0,-6.0,34.0,-90.0
-104.0,-948.0,-159.0,155.0,111.0,32.0,124.0,-89.0
-120.0,-1285.0,-206.0,10.0,64.0,-73.0,220.0,-125.0
-46.0,-940.0,-344.0,-318.0,81.0,-332.0,208.0,-104.0
-18.0,-696.0,-442.0,-438.0,109.0,-362.0,230.0,-122.0
56.0,117.0,-380.0,-299.0,118.0,-416.0,246.0,-58.0
167.0,172.0,-222.0,-60.0,154.0,-945.0,167.0,-56.0
181.0,264.0,-52.0,99.0,144.0,-1550.0,183.0,-79.0
157.0,323.0,63.0,227.0,273.0,-1569.0,169.0,-83.0
116.0,244.0,131.0,400.0,363.0,-1010.0,64.0,-153.0
1.0,262.0,140.0,590.0,480.0,-203.0,-58.0,-252.0
-196.0,77.0,217.0,767.0,603.0,1077.0,61.0,-406.0
-225.0,251.0,228.0,699.0,542.0,1969.0,144.0,-482.0
-92.0,144.0,178.0,509.0,461.0,1644.0,138.0,-455.0
27.0,328.0,101.0,333.0,550.0,1077.0,210.0,-366.0
38.0,382.0,-10.0,187.0,522.0,887.0,-60.0,-353.0
24.0,244.0,-46.0,-49.0,364.0,1092.0,-84.0,-313.0
89.0,256.0,-123.0,-253.0,310.0,1397.0,298.0,-102.0
86.0,245.0,-151.0,-422.0,163.0,1163.0,461.0,102.0
20.0,435.0,-179.0,-637.0,41.0,669.0,311.0,196.0
-43.0,646.0,-226.0,-768.0,3.0,406.0,183.0,182.0
-34.0,589.0,-125.0,-849.0,75.0,259.0,138.0,137.0
15.0,442.0,-77.0,-1050.0,35.0,300.0,-17.0,108.0
38.0,420.0,-115.0,-1166.0,39.0,311.0,-345.0,174.0
46.0,305.0,-205.0,-979.0,134.0,160.0,-729.0,202.0
58.0,273.0,-310.0,-789.0,79.0,47.0,-485.0,171.0
18.0,235.0,-241.0,-523.0,72.0,-80.0,51.0,160.0
32.0,205.0,-133.0,-220.0,-83.0,-84.0,-90.0,-76.0
42.0,170.0,-40.0,28.0,68.0,-58.0,-548.0,-114.0
65.0,78.0,21.0,140.0,432.0,-20.0,-534.0,29.0
80.0,57.0,69.0,207.0,599.0,0.0,-95.0,134.0
45.0,62.0,75.0,258.0,751.0,-44.0,655.0,367.0
41.0,-3.0,85.0,290.0,737.0,-42.0,1033.0,174.0
25.0,9.0,141.0,341.0,619.0,-3.0,759.0,-166.0
17.0,37.0,146.0,337.0,627.0,-54.0,333.0,-152.0
-5.0,-2.0,150.0,351.0,627.0,-77.0,131.0,-64.0
-5.0,1.0,172.0,310.0,672.0,-53.0,-80.0,17.0
-28.0,-34.0,160.0,282.0,701.0,-37.0,-469.0,29.0
-19.0,-22.0,150.0,298.0,627.0,58.0,-697.0,1.0
-18.0,-8.0,141.0,301.0,823.0,8.0,-581.0,73.0
-28.0,-35.0,101.0,276.0,953.0,-52.0,-6.0,174.0
-8.0,-45.0,92.0,301.0,866.0,-30.0,0.0,199.0
-3.0,-28.0,150.0,282.0,932.0,-29.0,-151.0,308.0
-4.0,7.0,215.0,232.0,865.0,-55.0,4.0,292.0
-40.0,85.0,204.0,234.0,659.0,-124.0,-29.0,54.0
-43.0,79.0,199.0,168.0,597.0,-142.0,183.0,-153.0
-18.0,34.0,211.0,102.0,686.0,-219.0,274.0,-221.0
11.0,-1.0,284.0,81.0,570.0,-281.0,355.0,-147.0
16.0,-66.0,354.0,48.0,492.0,-267.0,529.0,-92.0
-46.0,-38.0,306.0,44.0,615.0,-244.0,897.0,85.0
-288.0,-12.0,253.0,28.0,367.0,-239.0,1255.0,235.0
-710.0,16.0,133.0,-48.0,159.0,-272.0,1332.0,253.0
-560.0,19.0,-38.0,-97.0,3.0,-348.0,1280.0,283.0
89.0,-11.0,-35.0,-115.0,-516.0,-423.0,749.0,275.0
603.0,-28.0,256.0,-147.0,-967.0,-362.0,156.0,414.0
870.0,-97.0,467.0,-151.0,-1600.0,-354.0,-717.0,853.0
595.0,-165.0,-11.0,-141.0,-1719.0,-354.0,-1305.0,1077.0
117.0,-190.0,-232.0,-123.0,-1833.0,-285.0,-1201.0,1150.0
-97.0,-190.0,130.0,-110.0,-2187.0,-199.0,-1197.0,1399.0
114.0,-247.0,48.0,-85.0,-2224.0,-112.0,366.0,1319.0
406.0,-278.0,-135.0,-57.0,-2354.0,15.0,1539.0,1091.0
424.0,-212.0,-820.0,-48.0,-2290.0,176.0,812.0,760.0
-280.0,-143.0,-1613.0,-65.0,-2660.0,241.0,1051.0,322.0
-396.0,-48.0,-1492.0,-100.0,-3445.0,280.0,196.0,76.0
99.0,73.0,-971.0,-114.0,-3474.0,303.0,-1702.0,-133.0
-29.0,200.0,-572.0,-113.0,-2303.0,296.0,-3000.0,-404.0
39.0,223.0,64.0,-97.0,-2010.0,273.0,-2186.0,-622.0
-12.0,266.0,611.0,-56.0,-2753.0,303.0,1658.0,-545.0
-1.0,294.0,630.0,-5.0,-3054.0,303.0,2843.0,-411.0
35.0,273.0,611.0,53.0,-3904.0,276.0,1722.0,-427.0
-118.0,263.0,374.0,109.0,-4000.0,347.0,206.0,-390.0
-257.0,139.0,17.0,112.0,-4000.0,358.0,-1303.0,-467.0
-496.0,136.0,-255.0,85.0,-4000.0,354.0,-637.0,-508.0
-637.0,67.0,-182.0,48.0,-4000.0,365.0,-78.0,-378.0
-742.0,-114.0,-190.0,7.0,-4000.0,298.0,-507.0,-232.0
-844.0,-92.0,-606.0,32.0,-4000.0,233.0,-1032.0,-127.0
-957.0,4.0,-882.0,57.0,-3380.0,183.0,-1031.0,-297.0
-489.0,48.0,-1231.0,27.0,-2561.0,126.0,-686.0,-466.0
180.0,14.0,-1339.0,44.0,-1703.0,61.0,-316.0,-572.0
526.0,-64.0,-116.0,-26.0,-448.0,2.0,82.0,-753.0
844.0,-67.0,781.0,-149.0,953.0,-5.0,-38.0,-931.0
90.0,-59.0,1105.0,-184.0,2177.0,31.0,-238.0,-859.0
-1735.0,-146.0,1283.0,-226.0,3150.0,57.0,-573.0,-472.0
-1392.0,-147.0,781.0,-241.0,3668.0,73.0,30.0,-111.0
495.0,-111.0,728.0,-239.0,4000.0,23.0,510.0,14.0
1238.0,-109.0,598.0,-216.0,4000.0,-50.0,-298.0,-105.0
1962.0,-72.0,476.0,-195.0,3464.0,-79.0,-817.0,-72.0
1169.0,-114.0,98.0,-119.0,1824.0,-109.0,-101.0,-64.0
357.0,-153.0,-641.0,-51.0,967.0,-130.0,2244.0,-100.0
-188.0,-111.0,-906.0,-83.0,1083.0,-114.0,2712.0,-23.0
-1091.0,-13.0,-416.0,-75.0,1018.0,-102.0,1214.0,-59.0
-691.0,117.0,259.0,-35.0,612.0,-127.0,1341.0,-13.0
51.0,233.0,415.0,-33.0,187.0,-124.0,856.0,21.0
568.0,307.0,573.0,-87.0,-99.0,-146.0,-723.0,98.0
308.0,215.0,689.0,-67.0,-195.0,-149.0,-1570.0,98.0
473.0,66.0,636.0,-8.0,-18.0,-159.0,-1749.0,80.0
430.0,1.0,498.0,-19.0,111.0,-169.0,-294.0,125.0
47.0,6.0,96.0,-22.0,399.0,-175.0,2551.0,116.0
-188.0,64.0,-314.0,-17.0,998.0,-216.0,3683.0,100.0
-262.0,66.0,-210.0,-15.0,1417.0,-228.0,1259.0,167.0
-50.0,66.0,-74.0,-14.0,1538.0,-209.0,-1944.0,303.0
-11.0,33.0,21.0,91.0,1704.0,-224.0,-3572.0,266.0
66.0,25.0,65.0,223.0,2378.0,-238.0,-3660.0,230.0
7.0,57.0,-90.0,194.0,2776.0,-224.0,-4000.0,192.0
50.0,20.0,-389.0,27.0,2760.0,-206.0,-4000.0,239.0
147.0,55.0,-651.0,-53.0,2748.0,-89.0,-1136.0,419.0
163.0,103.0,-383.0,77.0,3020.0,-1.0,1657.0,490.0
64.0,41.0,-210.0,164.0,3812.0,23.0,1996.0,629.0
-11.0,18.0,-49.0,150.0,4000.0,47.0,1548.0,786.0
-160.0,-1.0,107.0,59.0,4000.0,-17.0,1267.0,739.0
-149.0,2.0,223.0,-12.0,4000.0,-57.0,1084.0,686.0
-104.0,26.0,121.0,30.0,4000.0,6.0,1135.0,530.0
-274.0,30.0,-67.0,-74.0,4000.0,166.0,1033.0,352.0
-260.0,22.0,-20.0,-162.0,4000.0,300.0,1149.0,401.0
-307.0,-6.0,-105.0,-184.0,4000.0,374.0,1330.0,462.0
-327.0,27.0,-71.0,-206.0,4000.0,376.0,1510.0,564.0
-303.0,34.0,-66.0,-243.0,4000.0,276.0,1475.0,503.0
-144.0,36.0,71.0,-162.0,4000.0,90.0,1054.0,385.0
-25.0,38.0,45.0,-95.0,4000.0,-54.0,571.0,329.0
-5.0,25.0,-59.0,-106.0,3772.0,-152.0,-316.0,228.0
35.0,-1.0,4.0,-45.0,3410.0,-287.0,-1048.0,339.0
65.0,-18.0,-40.0,-23.0,2760.0,-415.0,-533.0,596.0
125.0,0.0,-168.0,34.0,1669.0,-581.0,529.0,751.0
134.0,-20.0,-237.0,12.0,994.0,-685.0,1078.0,550.0
325.0,-42.0,-239.0,16.0,116.0,-770.0,1183.0,296.0
408.0,-70.0,-906.0,11.0,-709.0,-852.0,1072.0,218.0
174.0,-89.0,-1407.0,-26.0,-1383.0,-875.0,1098.0,-32.0
-49.0,-107.0,-1263.0,2.0,-1945.0,-932.0,1333.0,-144.0
-245.0,-128.0,-364.0,20.0,-2147.0,-932.0,2058.0,-79.0
-27.0,-114.0,1217.0,43.0,-2369.0,-901.0,2387.0,-87.0
430.0,-150.0,1822.0,26.0,-2341.0,-861.0,1223.0,-42.0
436.0,-176.0,1770.0,52.0,-2170.0,-781.0,-69.0,-60.0
447.0,-169.0,1192.0,38.0,-1951.0,-743.0,-1382.0,-203.0
391.0,-141.0,598.0,34.0,-1587.0,-661.0,-2923.0,-362.0
325.0,-130.0,589.0,85.0,-1012.0,-535.0,-3520.0,-659.0
186.0,-155.0,372.0,71.0,-855.0,-409.0,-1853.0,-753.0
-280.0,-134.0,336.0,22.0,-1007.0,-167.0,1776.0,-417.0
-565.0,-112.0,-135.0,30.0,-1703.0,9.0,2944.0,-98.0
-413.0,-79.0,-963.0,123.0,-1963.0,191.0,1854.0,-187.0
-234.0,-28.0,-1003.0,156.0,-1833.0,415.0,46.0,-618.0
-331.0,-46.0,-613.0,67.0,-2676.0,576.0,-2805.0,-788.0
-303.0,-49.0,-306.0,15.0,-3339.0,749.0,-4000.0,-797.0
-223.0,-5.0,-103.0,75.0,-3511.0,831.0,-3455.0,-936.0
-163.0,2.0,-74.0,92.0,-2843.0,941.0,-580.0,-1005.0
-193.0,15.0,100.0,62.0,-2312.0,1077.0,832.0,-1123.0
-208.0,63.0,217.0,115.0,-2561.0,1312.0,356.0,-1180.0
-45.0,62.0,138.0,134.0,-2741.0,1518.0,-998.0,-1208.0
35.0,50.0,103.0,64.0,-2676.0,1704.0,-1991.0,-1191.0
92.0,74.0,56.0,-21.0,-2466.0,1929.0,-1377.0,-1143.0
-157.0,45.0,54.0,-84.0,-2274.0,2159.0,-1071.0,-1018.0
-381.0,2.0,24.0,-53.0,-2386.0,2421.0,-737.0,-866.0
-53.0,-14.0,-29.0,-72.0,-2224.0,2580.0,767.0,-714.0
293.0,25.0,-104.0,-129.0,-1638.0,2759.0,2061.0,-537.0
446.0,28.0,-32.0,-155.0,-1504.0,2953.0,587.0,-472.0
408.0,4.0,63.0,-140.0,-1463.0,3036.0,-475.0,-496.0
277.0,43.0,52.0,-99.0,-1750.0,3083.0,738.0,-523.0
82.0,25.0,34.0,-115.0,-1915.0,3018.0,1574.0,-524.0
-16.0,40.0,-253.0,-137.0,-1520.0,3004.0,942.0,-622.0
-53.0,48.0,-512.0,-120.0,-1163.0,2840.0,791.0,-778.0
-182.0,65.0,-193.0,-94.0,-942.0,2306.0,464.0,-875.0
-142.0,90.0,421.0,-96.0,-1267.0,1266.0,79.0,-1078.0
-86.0,55.0,606.0,-90.0,-1137.0,177.0,271.0,-1430.0
-3.0,50.0,72.0,-57.0,-267.0,-663.0,-325.0,-1632.0
-66.0,33.0,-302.0,-63.0,-15.0,-1196.0,-489.0,-1526.0
-161.0,18.0,-234.0,-74.0,296.0,-1441.0,-897.0,-1018.0
-24.0,-3.0,-146.0,-68.0,248.0,-1688.0,-965.0,-168.0
-86.0,-10.0,28.0,-90.0,-1012.0,-1502.0,-1043.0,1065.0
-76.0,-1.0,-9.0,-98.0,-2224.0,-706.0,-998.0,2380.0
37.0,-31.0,110.0,-110.0,-2953.0,-1304.0,-837.0,3654.0
17.0,-39.0,74.0,-110.0,-3213.0,-3209.0,-986.0,4000.0
-48.0,-36.0,-11.0,-68.0,-3456.0,-4000.0,-876.0,4000.0
-111.0,-34.0,223.0,-98.0,-3844.0,-4000.0,-599.0,4000.0
-138.0,-34.0,128.0,-137.0,-3689.0,-4000.0,3.0,2433.0
-154.0,-24.0,20.0,-78.0,-3327.0,-4000.0,177.0,514.0
-47.0,-13.0,-120.0,-20.0,-3192.0,-4000.0,155.0,-599.0
24.0,-37.0,-401.0,-43.0,-3001.0,-4000.0,94.0,-1135.0
47.0,-64.0,-515.0,-47.0,-2912.0,-3376.0,-161.0,-1449.0
110.0,-57.0,-454.0,-64.0,-2857.0,-2774.0,-1006.0,-2682.0
82.0,-40.0,-354.0,-12.0,-2595.0,-2712.0,-1699.0,-4000.0
-119.0,-44.0,-348.0,75.0,-2065.0,-2949.0,-1728.0,-4000.0
-109.0,-36.0,-125.0,81.0,-1253.0,-2803.0,-1264.0,-4000.0
342.0,-41.0,-10.0,55.0,-643.0,-1623.0,-131.0,-4000.0
608.0,-57.0,238.0,20.0,-346.0,246.0,376.0,-3349.0
538.0,-43.0,663.0,22.0,-276.0,1787.0,535.0,-1375.0
538.0,-4.0,630.0,30.0,-153.0,2617.0,543.0,803.0
322.0,-14.0,172.0,52.0,-109.0,2905.0,832.0,2770.0
7.0,-24.0,-271.0,92.0,89.0,2888.0,1770.0,3458.0
-98.0,24.0,-324.0,88.0,480.0,2809.0,1866.0,3014.0
-201.0,44.0,-292.0,80.0,766.0,2771.0,1475.0,2550.0
-220.0,58.0,-229.0,60.0,1018.0,2818.0,824.0,2550.0
-314.0,80.0,-190.0,54.0,1192.0,2812.0,297.0,2677.0
-419.0,62.0,-20.0,62.0,1580.0,2645.0,429.0,2807.0
-309.0,40.0,42.0,49.0,1905.0,2450.0,876.0,2901.0
-127.0,71.0,-39.0,42.0,2419.0,2240.0,1540.0,2572.0
-2.0,95.0,85.0,37.0,3232.0,2159.0,1866.0,2118.0
14.0,69.0,-8.0,41.0,3788.0,1991.0,1149.0,1728.0
-3.0,78.0,3.0,97.0,4000.0,1799.0,246.0,1697.0
-55.0,105.0,260.0,59.0,4000.0,1703.0,-507.0,1818.0
-80.0,81.0,183.0,65.0,4000.0,1352.0,-2186.0,1859.0
-1.0,59.0,-67.0,59.0,4000.0,1075.0,-2530.0,1651.0
-5.0,62.0,-177.0,-87.0,4000.0,882.0,-555.0,1091.0
-14.0,70.0,-41.0,-178.0,4000.0,701.0,403.0,680.0
98.0,34.0,389.0,-160.0,4000.0,514.0,-592.0,369.0
97.0,27.0,624.0,-52.0,4000.0,406.0,-1588.0,139.0
80.0,50.0,439.0,-12.0,3855.0,319.0,-1832.0,54.0
86.0,20.0,85.0,8.0,3606.0,146.0,-442.0,109.0
50.0,25.0,-1.0,8.0,3595.0,-65.0,1787.0,283.0
60.0,16.0,-150.0,-34.0,3606.0,-257.0,2252.0,189.0
27.0,-17.0,-350.0,-45.0,3410.0,-358.0,1931.0,88.0
30.0,-12.0,-290.0,-54.0,3167.0,-546.0,1255.0,-128.0
53.0,-37.0,-192.0,-55.0,2695.0,-741.0,693.0,-419.0
37.0,-55.0,42.0,-74.0,2317.0,-940.0,497.0,-472.0
20.0,-33.0,205.0,-115.0,2100.0,-1075.0,367.0,-508.0
23.0,-38.0,179.0,-161.0,1824.0,-940.0,439.0,-416.0
-4.0,-29.0,-93.0,-141.0,1604.0,-899.0,195.0,-490.0
-39.0,3.0,-245.0,-85.0,1482.0,-906.0,136.0,-649.0
-43.0,19.0,-168.0,-46.0,1287.0,-906.0,-14.0,-794.0
-56.0,-12.0,104.0,-13.0,766.0,-796.0,-30.0,-1065.0
-101.0,-14.0,324.0,6.0,261.0,-532.0,-60.0,-1453.0
-78.0,-5.0,280.0,-7.0,153.0,-586.0,-104.0,-1859.0
-55.0,-36.0,199.0,3.0,615.0,-750.0,-69.0,-1762.0
-59.0,-42.0,79.0,12.0,1344.0,-845.0,-49.0,-1013.0
-61.0,-42.0,44.0,-15.0,1983.0,-716.0,29.0,-492.0
-69.0,-89.0,-99.0,10.0,1800.0,-472.0,24.0,-555.0
-32.0,-102.0,-181.0,56.0,1443.0,-470.0,172.0,-196.0
-27.0,-83.0,-46.0,99.0,1336.0,-415.0,216.0,-69.0
-27.0,-60.0,-5.0,99.0,1059.0,-373.0,172.0,-545.0
-34.0,-40.0,77.0,64.0,967.0,-600.0,94.0,-391.0
-31.0,-15.0,52.0,32.0,902.0,-555.0,95.0,174.0
-41.0,4.0,-87.0,-6.0,737.0,-362.0,105.0,612.0
-59.0,11.0,337.0,-41.0,328.0,-112.0,113.0,654.0
-39.0,55.0,1171.0,-86.0,4.0,311.0,183.0,69.0
-40.0,38.0,801.0,-101.0,-291.0,467.0,166.0,-411.0
-13.0,50.0,-645.0,-133.0,-653.0,293.0,217.0,-333.0
-11.0,45.0,-651.0,-107.0,-1309.0,197.0,238.0,-338.0
-5.0,-18.0,-244.0,-47.0,-2029.0,433.0,297.0,-385.0
2.0,-31.0,-1078.0,-62.0,-2010.0,-59.0,290.0,-297.0
-9.0,-39.0,-1279.0,10.0,-1980.0,-289.0,149.0,-107.0
-17.0,-11.0,-890.0,54.0,-2377.0,492.0,171.0,68.0
-23.0,8.0,-560.0,71.0,-2140.0,602.0,286.0,21.0
-18.0,7.0,89.0,95.0,-1817.0,738.0,498.0,-83.0
-36.0,41.0,408.0,111.0,-1520.0,801.0,557.0,-357.0
-36.0,19.0,345.0,169.0,-856.0,602.0,455.0,-543.0
-30.0,21.0,-255.0,154.0,-1333.0,541.0,481.0,-602.0
-19.0,38.0,-507.0,146.0,-1508.0,293.0,396.0,-724.0
42.0,58.0,-38.0,115.0,-1552.0,172.0,294.0,-605.0
107.0,73.0,-268.0,81.0,-1849.0,176.0,62.0,-594.0
52.0,55.0,-350.0,49.0,-1998.0,365.0,-73.0,-627.0
-38.0,48.0,165.0,32.0,-2676.0,433.0,7.0,-480.0
-49.0,70.0,663.0,-22.0,-2995.0,262.0,66.0,-353.0
13.0,113.0,1174.0,-66.0,-3018.0,2.0,10.0,-117.0
24.0,132.0,866.0,-23.0,-1433.0,-204.0,-190.0,341.0
104.0,142.0,83.0,-62.0,302.0,-381.0,-241.0,788.0
245.0,93.0,-271.0,-82.0,876.0,-409.0,-262.0,961.0
135.0,98.0,-566.0,-79.0,596.0,-362.0,-290.0,606.0
-83.0,84.0,-469.0,-80.0,-160.0,-342.0,-161.0,-47.0
-91.0,82.0,96.0,-65.0,-299.0,-267.0,-29.0,5.0
-9.0,66.0,498.0,-92.0,-659.0,-182.0,-98.0,831.0
-64.0,-28.0,937.0,-123.0,-1333.0,83.0,-273.0,556.0
-149.0,-49.0,1314.0,-124.0,-2147.0,206.0,-226.0,-17.0
-177.0,-131.0,1174.0,-141.0,-2688.0,115.0,-125.0,1260.0
-256.0,-153.0,218.0,-92.0,-2421.0,-226.0,-294.0,1660.0
-266.0,-88.0,-1003.0,-57.0,-2140.0,-384.0,-477.0,1063.0
-206.0,-97.0,-1666.0,-45.0,-2316.0,-216.0,-383.0,1338.0
-119.0,-104.0,-1797.0,-49.0,-2093.0,-68.0,-320.0,1892.0
18.0,-69.0,-1362.0,-81.0,-2419.0,-5.0,-359.0,1727.0
166.0,-28.0,-879.0,-37.0,-2716.0,-25.0,-371.0,196.0
203.0,-38.0,-268.0,-39.0,-2572.0,80.0,-412.0,-211.0
58.0,-72.0,166.0,-50.0,-1915.0,288.0,-403.0,434.0
-55.0,-66.0,189.0,-55.0,-1007.0,542.0,-351.0,-366.0
-125.0,-97.0,84.0,-32.0,-974.0,506.0,-286.0,-1801.0
-96.0,-137.0,34.0,8.0,-730.0,433.0,-206.0,-2283.0
-48.0,-207.0,270.0,6.0,-686.0,391.0,-233.0,-1659.0
-75.0,-327.0,491.0,12.0,-934.0,-18.0,-223.0,-1391.0
-39.0,-346.0,566.0,39.0,-942.0,-416.0,-186.0,-1429.0
-47.0,-261.0,271.0,12.0,-621.0,-500.0,-157.0,-166.0
-11.0,-134.0,187.0,-12.0,-225.0,-403.0,-21.0,434.0
72.0,-12.0,311.0,-16.0,-268.0,-289.0,-32.0,474.0
63.0,18.0,402.0,-21.0,-577.0,-224.0,-69.0,629.0
56.0,29.0,419.0,10.0,-785.0,-203.0,-84.0,-76.0
60.0,85.0,303.0,-12.0,-1142.0,-211.0,-54.0,-415.0
66.0,167.0,290.0,-8.0,-1919.0,-65.0,81.0,-583.0
55.0,225.0,218.0,-7.0,-2252.0,74.0,151.0,66.0
42.0,217.0,253.0,-4.0,-1504.0,201.0,99.0,389.0
30.0,238.0,266.0,42.0,412.0,412.0,-66.0,-120.0
38.0,258.0,415.0,44.0,1839.0,402.0,-101.0,-177.0
68.0,227.0,792.0,30.0,2383.0,180.0,25.0,-523.0
186.0,152.0,728.0,30.0,2813.0,-152.0,-4.0,-1013.0
334.0,96.0,378.0,20.0,2581.0,-445.0,-161.0,-594.0
255.0,17.0,461.0,56.0,2810.0,-594.0,-208.0,941.0
204.0,-7.0,246.0,62.0,3037.0,-641.0,-93.0,1372.0
151.0,7.0,105.0,32.0,2745.0,-516.0,47.0,1179.0
3.0,12.0,519.0,0.0,2491.0,-273.0,106.0,1467.0
3.0,135.0,59.0,-37.0,1710.0,-98.0,155.0,1660.0
36.0,199.0,-782.0,-75.0,896.0,21.0,160.0,2042.0
54.0,128.0,-1022.0,-94.0,1198.0,35.0,116.0,1818.0
137.0,1.0,-971.0,-68.0,1579.0,-18.0,38.0,-953.0
199.0,-63.0,-1036.0,-72.0,1265.0,38.0,-9.0,-4000.0
265.0,-60.0,-971.0,-123.0,724.0,119.0,104.0,-4000.0
382.0,-56.0,-550.0,-89.0,97.0,335.0,203.0,-1396.0
269.0,-101.0,-318.0,9.0,-486.0,571.0,246.0,1977.0
25.0,-103.0,-154.0,-6.0,-1190.0,746.0,339.0,2422.0
-76.0,-31.0,16.0,-15.0,-1588.0,784.0,334.0,3700.0
-258.0,20.0,-95.0,30.0,-838.0,701.0,111.0,3079.0
-457.0,-32.0,-193.0,55.0,-212.0,713.0,-27.0,778.0
-412.0,-4.0,32.0,57.0,-751.0,619.0,-93.0,196.0
-418.0,117.0,318.0,20.0,-1117.0,427.0,-141.0,-419.0
-515.0,60.0,217.0,5.0,-790.0,211.0,-42.0,1586.0
-502.0,-9.0,-99.0,-16.0,-769.0,40.0,-31.0,2550.0
-498.0,-55.0,-209.0,-2.0,-781.0,-54.0,-151.0,2563.0
-493.0,4.0,53.0,24.0,-742.0,-15.0,-221.0,3910.0
-473.0,91.0,376.0,-28.0,-679.0,127.0,-122.0,3673.0
-445.0,179.0,408.0,-57.0,-785.0,254.0,-207.0,2807.0
-418.0,294.0,533.0,-25.0,-1449.0,207.0,-373.0,876.0
-357.0,223.0,1243.0,12.0,-1600.0,-39.0,-351.0,-1520.0
-266.0,34.0,1609.0,30.0,-1012.0,-269.0,-372.0,-3773.0
-108.0,-108.0,1133.0,67.0,-583.0,-459.0,-275.0,-4000.0
172.0,-125.0,410.0,81.0,-773.0,-485.0,-228.0,-4000.0
281.0,-208.0,-572.0,72.0,-1267.0,-317.0,-159.0,-3669.0
314.0,-258.0,-971.0,37.0,-1823.0,-7.0,-11.0,-1697.0
310.0,-142.0,-1101.0,19.0,-2122.0,272.0,40.0,-685.0
285.0,-150.0,-1263.0,59.0,-2664.0,445.0,220.0,-1298.0
308.0,-111.0,-1069.0,67.0,-4000.0,441.0,250.0,-2747.0
267.0,-79.0,-585.0,34.0,-4000.0,235.0,250.0,-1326.0
253.0,-56.0,118.0,-31.0,-3701.0,74.0,283.0,-1404.0
228.0,126.0,30.0,-70.0,-2187.0,-46.0,284.0,-2153.0
181.0,173.0,-385.0,-23.0,-201.0,-113.0,248.0,-2876.0
122.0,168.0,-52.0,-1.0,466.0,-362.0,154.0,-3824.0
92.0,179.0,57.0,4.0,373.0,-602.0,206.0,-3397.0
97.0,135.0,-440.0,15.0,749.0,-546.0,254.0,-3824.0
37.0,113.0,-291.0,-10.0,953.0,-297.0,325.0,-1046.0
4.0,82.0,-306.0,-10.0,1379.0,-134.0,464.0,1663.0
16.0,69.0,-542.0,-63.0,1966.0,-135.0,439.0,2705.0
60.0,36.0,-450.0,-106.0,2646.0,-129.0,368.0,4000.0
67.0,-7.0,-324.0,-1.0,2878.0,-85.0,352.0,2948.0
48.0,-15.0,-50.0,34.0,3085.0,-3.0,300.0,1586.0
89.0,-4.0,115.0,-36.0,3085.0,36.0,145.0,686.0
74.0,-28.0,124.0,-12.0,3204.0,-24.0,223.0,218.0
96.0,-128.0,-78.0,-16.0,3215.0,-162.0,335.0,914.0
122.0,-281.0,61.0,-38.0,3020.0,-240.0,116.0,1130.0
196.0,-337.0,385.0,-9.0,2940.0,-269.0,54.0,1003.0
503.0,-249.0,337.0,-25.0,2955.0,-276.0,32.0,491.0
298.0,-144.0,263.0,-37.0,2428.0,-188.0,12.0,-1078.0
-236.0,-117.0,280.0,-75.0,1930.0,-35.0,132.0,-221.0
-98.0,-81.0,263.0,-89.0,2491.0,101.0,84.0,556.0
39.0,-58.0,215.0,-73.0,2813.0,132.0,-18.0,-435.0
25.0,-55.0,244.0,-47.0,3008.0,115.0,-69.0,-246.0
-36.0,-2.0,158.0,-38.0,2825.0,69.0,-92.0,132.0
-158.0,11.0,95.0,-33.0,2889.0,-1.0,-121.0,1371.0
-129.0,33.0,207.0,-50.0,2646.0,-144.0,-182.0,1281.0
-181.0,46.0,231.0,-63.0,2047.0,-151.0,-207.0,1044.0
-268.0,8.0,199.0,-85.0,1769.0,-36.0,-199.0,935.0
-515.0,-36.0,213.0,-120.0,1901.0,8.0,-137.0,399.0
-632.0,-40.0,234.0,-45.0,2646.0,143.0,-42.0,487.0
-437.0,15.0,191.0,-26.0,2630.0,79.0,-58.0,40.0
-91.0,160.0,160.0,-34.0,2254.0,-83.0,-82.0,-232.0
-10.0,247.0,113.0,-15.0,2296.0,-61.0,-123.0,36.0
21.0,282.0,96.0,-34.0,2907.0,4.0,-149.0,955.0
334.0,290.0,67.0,7.0,3346.0,28.0,-145.0,674.0
460.0,290.0,-3.0,9.0,4000.0,-19.0,-202.0,660.0
181.0,294.0,-37.0,-2.0,4000.0,39.0,-145.0,784.0
-52.0,215.0,-60.0,5.0,4000.0,12.0,-145.0,279.0
-69.0,251.0,-61.0,-49.0,4000.0,-65.0,-200.0,79.0
-248.0,211.0,-57.0,-73.0,4000.0,-105.0,-163.0,48.0
-229.0,95.0,-44.0,-80.0,4000.0,-169.0,-25.0,1026.0
-250.0,-22.0,-32.0,-88.0,4000.0,0.0,62.0,483.0
-272.0,-222.0,-22.0,-67.0,3916.0,102.0,21.0,-540.0
-225.0,-304.0,1.0,-46.0,2646.0,81.0,37.0,-205.0
-215.0,-393.0,47.0,-10.0,1657.0,209.0,62.0,-395.0
-94.0,-437.0,-1.0,-38.0,811.0,303.0,90.0,-1130.0
-78.0,-343.0,-47.0,-65.0,-155.0,180.0,68.0,-758.0
49.0,-280.0,-16.0,-18.0,-1142.0,-74.0,-39.0,-162.0
149.0,-192.0,-52.0,2.0,-1888.0,-409.0,-18.0,260.0
122.0,-96.0,-42.0,21.0,-2741.0,-576.0,65.0,1456.0
112.0,-39.0,-49.0,49.0,-3539.0,-481.0,74.0,1142.0
151.0,-79.0,-103.0,47.0,-3754.0,-149.0,120.0,941.0
181.0,-111.0,-95.0,-11.0,-3445.0,288.0,65.0,1142.0
196.0,-117.0,-63.0,-37.0,-2741.0,592.0,-15.0,160.0
208.0,-155.0,-73.0,-18.0,-2818.0,576.0,-74.0,-1265.0
187.0,-92.0,-155.0,6.0,-3508.0,206.0,-202.0,-2605.0
208.0,-53.0,-187.0,29.0,-3604.0,89.0,-217.0,-1257.0
219.0,-64.0,-155.0,24.0,-3327.0,185.0,-200.0,-1659.0
208.0,-81.0,-100.0,26.0,-2212.0,206.0,-98.0,-2276.0
167.0,-27.0,28.0,67.0,-1031.0,158.0,-17.0,-431.0
110.0,28.0,125.0,81.0,-730.0,50.0,27.0,-1084.0
180.0,47.0,89.0,25.0,-116.0,69.0,170.0,-223.0
253.0,37.0,73.0,16.0,495.0,110.0,181.0,635.0
187.0,31.0,68.0,23.0,448.0,166.0,91.0,91.0
72.0,60.0,-26.0,-55.0,857.0,159.0,59.0,1122.0
13.0,68.0,-74.0,-100.0,1063.0,189.0,19.0,1221.0
-116.0,91.0,-85.0,-82.0,688.0,172.0,12.0,695.0
-219.0,46.0,-45.0,-85.0,459.0,107.0,-27.0,462.0
-234.0,47.0,-61.0,-96.0,-228.0,47.0,-47.0,597.0
-258.0,33.0,-5.0,-86.0,-818.0,-16.0,-22.0,438.0
-308.0,60.0,92.0,-51.0,-1463.0,53.0,-104.0,-305.0
-321.0,96.0,33.0,-69.0,-2094.0,85.0,-90.0,-281.0
-29.0,84.0,29.0,-15.0,-2369.0,158.0,-33.0,274.0
382.0,84.0,56.0,69.0,-2989.0,319.0,-43.0,-29.0
660.0,30.0,139.0,100.0,-3327.0,492.0,-20.0,-288.0
785.0,62.0,345.0,87.0,-3573.0,498.0,23.0,-604.0
580.0,52.0,592.0,37.0,-3752.0,524.0,45.0,-1058.0
187.0,21.0,360.0,42.0,-3573.0,622.0,47.0,-5.0
-12.0,16.0,-317.0,-30.0,-3576.0,571.0,65.0,882.0
-183.0,-22.0,-596.0,-113.0,-3767.0,506.0,71.0,1395.0
-331.0,-15.0,-357.0,-165.0,-3917.0,398.0,107.0,1728.0
-388.0,-21.0,-12.0,-185.0,-3767.0,276.0,95.0,1989.0
-427.0,-36.0,-212.0,-171.0,-3728.0,172.0,75.0,2302.0
-273.0,-24.0,-557.0,-105.0,-3628.0,119.0,178.0,2302.0
-52.0,-15.0,-507.0,-20.0,-3521.0,105.0,177.0,2225.0
-209.0,36.0,-141.0,18.0,-3380.0,-10.0,158.0,1859.0
-386.0,87.0,95.0,31.0,-3315.0,-128.0,209.0,1403.0
-457.0,95.0,-3.0,0.0,-3327.0,-192.0,185.0,860.0
-654.0,34.0,28.0,-38.0,-3066.0,-10.0,209.0,249.0
-518.0,15.0,51.0,-137.0,-2741.0,113.0,220.0,-407.0
-440.0,77.0,163.0,-214.0,-2435.0,61.0,176.0,-679.0
-280.0,89.0,187.0,-231.0,-2275.0,129.0,120.0,-646.0
-140.0,44.0,-50.0,-183.0,-1979.0,154.0,39.0,-671.0
-158.0,17.0,-82.0,-136.0,-1653.0,84.0,-8.0,-740.0
-31.0,33.0,18.0,-69.0,-1377.0,-4.0,-18.0,-1070.0
-14.0,46.0,-52.0,-14.0,-1120.0,-50.0,-55.0,-1445.0
139.0,75.0,-90.0,0.0,-928.0,-118.0,-133.0,-1725.0
204.0,70.0,-52.0,66.0,-681.0,-206.0,-135.0,-1803.0
174.0,74.0,-31.0,125.0,-351.0,-297.0,-69.0,-1709.0
104.0,87.0,-17.0,226.0,-16.0,-419.0,-53.0,-1579.0
25.0,77.0,-8.0,197.0,237.0,-521.0,-104.0,-1404.0
123.0,49.0,21.0,195.0,318.0,-511.0,-68.0,-1180.0
96.0,58.0,47.0,251.0,425.0,-378.0,-1.0,-1005.0
61.0,62.0,77.0,207.0,528.0,-340.0,-15.0,-980.0
32.0,17.0,-13.0,220.0,668.0,-255.0,-80.0,-1064.0
21.0,11.0,-11.0,442.0,945.0,-150.0,-88.0,-1269.0
20.0,9.0,96.0,693.0,967.0,-167.0,-35.0,-1601.0
27.0,8.0,299.0,345.0,1026.0,-14.0,-54.0,-1709.0
53.0,4.0,642.0,-75.0,1156.0,172.0,-260.0,-1135.0
45.0,15.0,655.0,-151.0,1266.0,235.0,-355.0,-192.0
103.0,24.0,284.0,-220.0,1213.0,225.0,-185.0,726.0
130.0,44.0,-82.0,-125.0,1114.0,286.0,-167.0,1241.0
163.0,26.0,-350.0,-107.0,1018.0,237.0,-72.0,1334.0
171.0,21.0,-393.0,-101.0,790.0,80.0,84.0,1373.0
139.0,46.0,-343.0,-54.0,618.0,23.0,265.0,1334.0
145.0,38.0,-317.0,48.0,367.0,-159.0,460.0,1108.0
28.0,33.0,-212.0,113.0,282.0,-251.0,445.0,739.0
-271.0,20.0,-150.0,38.0,314.0,-293.0,464.0,434.0
-392.0,9.0,-102.0,1.0,330.0,-474.0,294.0,93.0
-18.0,34.0,-174.0,-30.0,664.0,-678.0,-4.0,-240.0
322.0,23.0,-93.0,-48.0,1026.0,-926.0,-73.0,-572.0
424.0,21.0,63.0,-76.0,1205.0,-875.0,-109.0,-934.0
489.0,18.0,109.0,-66.0,1279.0,-630.0,-156.0,-1192.0
341.0,26.0,212.0,-88.0,1332.0,-511.0,-22.0,-1298.0
4.0,43.0,193.0,-106.0,1377.0,-336.0,33.0,-1206.0
-82.0,38.0,230.0,-115.0,1287.0,-68.0,40.0,-1064.0
-49.0,75.0,333.0,-93.0,1083.0,127.0,-51.0,-818.0
-105.0,59.0,425.0,-92.0,961.0,189.0,-163.0,-496.0
-106.0,41.0,638.0,-132.0,961.0,191.0,-226.0,-175.0
-185.0,33.0,722.0,-108.0,831.0,56.0,-327.0,252.0
-218.0,30.0,572.0,-123.0,607.0,-58.0,-275.0,695.0
-193.0,25.0,345.0,-121.0,379.0,71.0,-138.0,1108.0
-182.0,12.0,370.0,-100.0,180.0,64.0,-117.0,1334.0
-166.0,27.0,598.0,-116.0,44.0,115.0,-112.0,1439.0
-134.0,16.0,125.0,-126.0,-21.0,200.0,-14.0,1541.0
-116.0,0.0,-678.0,-85.0,-75.0,28.0,211.0,1638.0
-104.0,-38.0,-1066.0,-45.0,-36.0,-134.0,368.0,1895.0
-90.0,-18.0,-912.0,-32.0,72.0,-224.0,151.0,1924.0
-97.0,-43.0,-430.0,-35.0,159.0,-159.0,-73.0,1012.0
-70.0,-93.0,-389.0,-24.0,325.0,-232.0,-385.0,-129.0
-19.0,-87.0,-51.0,-20.0,454.0,-234.0,-620.0,-889.0
9.0,-66.0,23.0,-17.0,562.0,-54.0,-513.0,-1143.0
3.0,-51.0,-687.0,13.0,706.0,-45.0,-583.0,-1115.0
-9.0,-65.0,-937.0,20.0,887.0,-74.0,-723.0,-1339.0
-6.0,-39.0,-971.0,38.0,1018.0,-159.0,-929.0,-1432.0
-18.0,-23.0,-585.0,64.0,1091.0,-210.0,-789.0,-1234.0
-11.0,26.0,-219.0,46.0,1204.0,-152.0,-305.0,-366.0
-21.0,93.0,-129.0,2.0,1189.0,-89.0,124.0,798.0
7.0,98.0,28.0,13.0,1118.0,-122.0,474.0,1989.0
13.0,83.0,-37.0,27.0,1128.0,-312.0,995.0,3067.0
-11.0,67.0,112.0,8.0,1097.0,-651.0,1528.0,3390.0
9.0,20.0,157.0,-6.0,1213.0,-710.0,1605.0,3079.0
-3.0,20.0,-49.0,-15.0,1380.0,-521.0,1592.0,2283.0
13.0,7.0,9.0,-47.0,1443.0,-532.0,1164.0,1573.0
18.0,4.0,110.0,-62.0,1453.0,-314.0,693.0,955.0
44.0,28.0,107.0,-10.0,1409.0,-110.0,470.0,601.0
45.0,-5.0,77.0,5.0,1391.0,-27.0,21.0,420.0
20.0,-12.0,93.0,-11.0,1270.0,280.0,-258.0,279.0
50.0,-49.0,142.0,-33.0,1156.0,525.0,-279.0,79.0
59.0,-48.0,126.0,-4.0,1006.0,367.0,-146.0,-278.0
80.0,-34.0,200.0,27.0,857.0,-29.0,300.0,-614.0
43.0,-40.0,269.0,5.0,771.0,-50.0,693.0,-1123.0
17.0,-42.0,230.0,-7.0,724.0,402.0,791.0,-1743.0
21.0,-32.0,217.0,-22.0,701.0,758.0,945.0,-2502.0
4.0,-1.0,215.0,-26.0,607.0,758.0,1084.0,-3073.0
12.0,21.0,189.0,-17.0,586.0,941.0,682.0,-3321.0
-26.0,23.0,170.0,-33.0,603.0,1182.0,143.0,-3253.0
-33.0,39.0,114.0,-42.0,570.0,1026.0,-152.0,-3073.0
-5.0,29.0,118.0,-60.0,550.0,831.0,-416.0,-2863.0
2.0,-26.0,137.0,-36.0,607.0,506.0,-839.0,-2415.0
-16.0,-24.0,118.0,-8.0,660.0,307.0,-1462.0,-2218.0
-31.0,-21.0,85.0,-18.0,641.0,415.0,-1897.0,-2165.0
-7.0,-64.0,89.0,-45.0,672.0,725.0,-2139.0,-2063.0
-1.0,-42.0,85.0,-64.0,596.0,1128.0,-2740.0,-1959.0
3.0,-64.0,47.0,-50.0,379.0,1323.0,-3261.0,-1390.0
12.0,-89.0,42.0,-66.0,217.0,1462.0,-2934.0,-604.0
18.0,-72.0,3.0,-87.0,-64.0,1462.0,-1487.0,817.0
-8.0,-29.0,-48.0,-100.0,-457.0,1460.0,120.0,2380.0
17.0,-25.0,-73.0,-72.0,-942.0,1329.0,921.0,2883.0
36.0,-33.0,-61.0,-52.0,-1320.0,1114.0,999.0,3535.0
32.0,-26.0,-56.0,-47.0,-1385.0,857.0,368.0,4000.0
-43.0,-37.0,-74.0,-62.0,-1514.0,288.0,897.0,4000.0
-238.0,-22.0,-6.0,-43.0,-1588.0,-182.0,2309.0,4000.0
0.0,-10.0,-13.0,21.0,-1600.0,-358.0,3021.0,4000.0
447.0,2.0,-27.0,6.0,-1756.0,-224.0,3075.0,4000.0
725.0,-20.0,14.0,38.0,-1795.0,-80.0,2514.0,4000.0
1116.0,-43.0,-5.0,88.0,-1802.0,101.0,1967.0,4000.0
755.0,-40.0,-9.0,67.0,-1849.0,601.0,1575.0,4000.0
35.0,-38.0,-22.0,43.0,-1784.0,953.0,1183.0,4000.0
-245.0,-38.0,-25.0,34.0,-1951.0,888.0,1409.0,4000.0
-649.0,1.0,-18.0,62.0,-2094.0,749.0,1418.0,4000.0
-844.0,25.0,-25.0,26.0,-2271.0,557.0,791.0,4000.0
-654.0,8.0,-28.0,28.0,-2354.0,376.0,673.0,4000.0
-376.0,1.0,3.0,37.0,-2406.0,414.0,563.0,1728.0
-241.0,-42.0,5.0,10.0,-2549.0,241.0,457.0,-557.0
-311.0,-32.0,-21.0,20.0,-2800.0,-114.0,404.0,-2153.0
-534.0,-1.0,1.0,-3.0,-2924.0,-341.0,79.0,-2741.0
-771.0,-3.0,39.0,6.0,-2513.0,-507.0,-384.0,-2360.0
-413.0,13.0,35.0,-44.0,-1945.0,-816.0,-717.0,-2375.0
192.0,4.0,0.0,-61.0,-1571.0,-1035.0,-1104.0,-2617.0
422.0,8.0,24.0,-38.0,-1552.0,-940.0,-1586.0,-3527.0
342.0,83.0,85.0,-54.0,-973.0,-1032.0,-1527.0,-4000.0
328.0,89.0,95.0,-22.0,-291.0,-1261.0,-1388.0,-4000.0
368.0,52.0,44.0,-49.0,351.0,-1316.0,-1423.0,-4000.0
157.0,15.0,43.0,-55.0,725.0,-1205.0,-2121.0,-4000.0
3.0,8.0,-8.0,-55.0,944.0,-1162.0,-2343.0,-4000.0
260.0,21.0,-133.0,-49.0,1462.0,-1053.0,-1716.0,-4000.0
961.0,1.0,-183.0,-37.0,1443.0,-896.0,-1527.0,-4000.0
863.0,-25.0,-268.0,-37.0,1488.0,-672.0,-1488.0,-4000.0
398.0,-42.0,-222.0,-25.0,1604.0,-584.0,-1178.0,-4000.0
-29.0,-27.0,-118.0,-21.0,1417.0,-716.0,-644.0,-4000.0
-807.0,-36.0,48.0,-25.0,1323.0,-816.0,-576.0,-4000.0
-1170.0,-31.0,754.0,-45.0,1417.0,-945.0,-852.0,-4000.0
-1196.0,-25.0,988.0,-38.0,1601.0,-836.0,-1076.0,-1606.0
-908.0,-7.0,57.0,-45.0,2060.0,-729.0,-796.0,95.0
-685.0,-7.0,-438.0,-50.0,3085.0,-621.0,474.0,695.0
-407.0,-27.0,-413.0,-39.0,3916.0,-519.0,921.0,461.0
-221.0,-26.0,-357.0,-25.0,4000.0,-419.0,687.0,-360.0
-97.0,-11.0,-277.0,-37.0,3859.0,-305.0,598.0,-410.0
166.0,37.0,-288.0,-22.0,4000.0,-320.0,271.0,178.0
530.0,55.0,-104.0,37.0,4000.0,-281.0,974.0,564.0
656.0,87.0,-46.0,42.0,4000.0,-189.0,1964.0,935.0
253.0,98.0,67.0,44.0,3772.0,-187.0,1931.0,1091.0
198.0,77.0,113.0,27.0,2748.0,-331.0,1129.0,1020.0
160.0,73.0,-128.0,66.0,1800.0,-362.0,681.0,686.0
78.0,79.0,-113.0,56.0,1272.0,-384.0,889.0,788.0
27.0,62.0,37.0,41.0,480.0,-375.0,921.0,1399.0
-5.0,51.0,-8.0,54.0,106.0,-362.0,470.0,1272.0
50.0,50.0,9.0,26.0,635.0,-379.0,81.0,811.0
45.0,36.0,-39.0,4.0,733.0,-279.0,368.0,1337.0
93.0,-22.0,-78.0,-19.0,306.0,-148.0,506.0,2184.0
82.0,-67.0,-64.0,-2.0,-131.0,48.0,1049.0,2935.0
127.0,-77.0,27.0,-57.0,-112.0,265.0,1786.0,3487.0
79.0,-83.0,180.0,-57.0,105.0,494.0,2557.0,4000.0
95.0,-64.0,180.0,-44.0,-22.0,687.0,2684.0,4000.0
195.0,-41.0,111.0,-63.0,-65.0,823.0,1380.0,4000.0
281.0,-46.0,-50.0,-63.0,76.0,941.0,570.0,4000.0
163.0,-29.0,-45.0,-56.0,293.0,998.0,283.0,4000.0
-92.0,-22.0,49.0,-33.0,383.0,1075.0,339.0,4000.0
-25.0,-33.0,146.0,-42.0,-482.0,1189.0,523.0,4000.0
129.0,-35.0,88.0,-21.0,-1324.0,1279.0,537.0,3393.0
243.0,-50.0,-123.0,-14.0,-1534.0,1201.0,271.0,2159.0
260.0,-17.0,-57.0,-10.0,-2094.0,1118.0,-255.0,1026.0
134.0,2.0,10.0,-12.0,-2094.0,1026.0,-130.0,373.0
-14.0,-13.0,-30.0,38.0,-1638.0,896.0,637.0,-212.0
-91.0,-5.0,-81.0,38.0,-1117.0,823.0,903.0,-1083.0
55.0,-12.0,-251.0,-4.0,-846.0,701.0,470.0,-1709.0
39.0,-47.0,-403.0,2.0,-1188.0,651.0,823.0,-2128.0
-132.0,-53.0,-385.0,-26.0,-1666.0,597.0,-317.0,-2146.0
-120.0,-18.0,-203.0,11.0,-1915.0,457.0,-2594.0,-1970.0
-5.0,27.0,55.0,32.0,-1361.0,303.0,-2121.0,-1111.0
240.0,10.0,86.0,16.0,-1007.0,191.0,-475.0,-608.0
190.0,-19.0,95.0,18.0,-1626.0,153.0,-79.0,-195.0
11.0,6.0,129.0,34.0,-1255.0,136.0,-685.0,182.0
6.0,15.0,-72.0,23.0,-782.0,84.0,-1169.0,-152.0
-209.0,17.0,-148.0,-23.0,-551.0,61.0,-1441.0,-28.0
-242.0,25.0,145.0,-10.0,-172.0,67.0,-1332.0,-467.0
-233.0,47.0,480.0,-6.0,-299.0,-71.0,-1438.0,-918.0
-282.0,65.0,330.0,-9.0,-73.0,-138.0,-1897.0,-1078.0
-372.0,30.0,75.0,-18.0,-349.0,-161.0,-1605.0,-1381.0
-417.0,4.0,-1.0,-24.0,-837.0,-297.0,-150.0,-1839.0
-274.0,28.0,-132.0,-23.0,-429.0,-439.0,1475.0,-2448.0
-322.0,44.0,-90.0,-80.0,245.0,-472.0,1735.0,-2959.0
-291.0,55.0,148.0,-78.0,-88.0,-394.0,1019.0,-3451.0
-201.0,31.0,349.0,-74.0,-360.0,-240.0,432.0,-3349.0
-81.0,-3.0,244.0,-78.0,804.0,40.0,673.0,-3154.0
5.0,36.0,-153.0,-30.0,1722.0,391.0,1019.0,-2670.0
52.0,34.0,-302.0,-3.0,2485.0,622.0,642.0,-1856.0
122.0,30.0,31.0,-35.0,3074.0,415.0,416.0,-1375.0
90.0,56.0,246.0,-8.0,2838.0,-419.0,637.0,-818.0
105.0,74.0,309.0,28.0,2357.0,-1715.0,111.0,-614.0
110.0,93.0,246.0,-72.0,944.0,-3010.0,-161.0,-362.0
145.0,77.0,109.0,-100.0,-1072.0,-3698.0,-130.0,168.0
151.0,55.0,-187.0,-84.0,-2676.0,-3990.0,-401.0,361.0
76.0,48.0,-401.0,-72.0,-3767.0,-4000.0,-923.0,612.0
-26.0,21.0,-342.0,-33.0,-4000.0,-1995.0,-1716.0,515.0
-203.0,-10.0,-228.0,-71.0,-4000.0,1666.0,-2043.0,591.0
-647.0,-28.0,51.0,-53.0,-4000.0,4000.0,-2471.0,1512.0
-1091.0,-54.0,53.0,-37.0,-4000.0,4000.0,-2675.0,1437.0
-714.0,-64.0,20.0,-61.0,-4000.0,4000.0,-2270.0,1077.0
434.0,-53.0,-33.0,-26.0,-4000.0,4000.0,-1318.0,1091.0
1293.0,-16.0,-52.0,7.0,-4000.0,4000.0,-1551.0,947.0
1095.0,-1.0,-7.0,10.0,-4000.0,4000.0,-2408.0,1134.0
719.0,-18.0,-54.0,16.0,-4000.0,4000.0,-1583.0,1216.0
387.0,19.0,-3.0,32.0,-4000.0,4000.0,-359.0,1716.0
212.0,59.0,50.0,42.0,-4000.0,2682.0,431.0,1986.0
127.0,43.0,10.0,64.0,-4000.0,977.0,24.0,1793.0
-56.0,-30.0,-66.0,57.0,-4000.0,-668.0,-1914.0,1697.0
-239.0,-45.0,211.0,52.0,-4000.0,-2386.0,-2495.0,1586.0
-341.0,-24.0,432.0,69.0,-3586.0,-3494.0,-941.0,1598.0
-104.0,-50.0,458.0,44.0,-1998.0,-4000.0,181.0,1623.0
44.0,-42.0,280.0,19.0,-163.0,-4000.0,144.0,1663.0
113.0,-6.0,46.0,18.0,1313.0,-4000.0,26.0,1567.0
139.0,5.0,-66.0,34.0,2681.0,-4000.0,69.0,1574.0
104.0,-15.0,-98.0,-1.0,3794.0,-4000.0,-260.0,1623.0
53.0,-21.0,124.0,-39.0,4000.0,-4000.0,-12.0,1502.0
-22.0,-68.0,-98.0,-42.0,4000.0,-4000.0,1063.0,1585.0
18.0,-62.0,-227.0,-59.0,4000.0,-4000.0,1064.0,1568.0
82.0,-70.0,-18.0,-41.0,4000.0,-4000.0,-195.0,1309.0
163.0,-48.0,498.0,-49.0,4000.0,-4000.0,-643.0,1182.0
495.0,-26.0,899.0,-14.0,4000.0,-4000.0,20.0,1456.0
408.0,-82.0,9.0,90.0,4000.0,-4000.0,113.0,1573.0
-228.0,-33.0,-343.0,85.0,4000.0,-3470.0,-318.0,1177.0
-575.0,-4.0,-35.0,-5.0,4000.0,-2287.0,-241.0,1012.0
-599.0,2.0,-229.0,-50.0,4000.0,-1729.0,816.0,1020.0
-288.0,2.0,-523.0,-115.0,4000.0,-1505.0,1734.0,874.0
-105.0,27.0,-727.0,-182.0,4000.0,-838.0,2307.0,547.0
-239.0,74.0,-971.0,-178.0,4000.0,-407.0,2749.0,100.0
-318.0,114.0,-1517.0,-110.0,4000.0,-358.0,2814.0,174.0
-327.0,126.0,-1703.0,-47.0,4000.0,-289.0,2631.0,426.0
-201.0,86.0,-1028.0,-15.0,4000.0,-25.0,2321.0,355.0
-195.0,43.0,-434.0,50.0,4000.0,551.0,1645.0,169.0
-208.0,40.0,-798.0,116.0,4000.0,1247.0,738.0,-168.0
-222.0,57.0,-350.0,142.0,4000.0,1929.0,113.0,-254.0
-132.0,3.0,253.0,30.0,4000.0,1666.0,-176.0,-301.0
-188.0,-55.0,21.0,33.0,4000.0,693.0,685.0,-496.0
-151.0,-90.0,-358.0,106.0,4000.0,262.0,1522.0,-614.0
52.0,-103.0,-324.0,80.0,4000.0,734.0,1149.0,-883.0
111.0,-91.0,189.0,72.0,4000.0,1313.0,954.0,-1114.0
322.0,-163.0,229.0,62.0,4000.0,1214.0,1323.0,-1326.0
328.0,-150.0,630.0,80.0,432.0,1201.0,1406.0,-1365.0
263.0,-34.0,671.0,28.0,-4000.0,902.0,1084.0,-1534.0
114.0,-62.0,736.0,-7.0,-4000.0,902.0,600.0,-1697.0
-39.0,-27.0,858.0,-40.0,-4000.0,1201.0,349.0,-1607.0
-98.0,-47.0,1153.0,-20.0,-4000.0,1287.0,311.0,-1658.0
-233.0,-103.0,2070.0,-6.0,-4000.0,1991.0,315.0,-1615.0
-166.0,-84.0,1423.0,-80.0,-4000.0,2568.0,321.0,-1762.0
-81.0,-96.0,1106.0,-86.0,-4000.0,3137.0,326.0,-1660.0
51.0,-49.0,2653.0,-110.0,-4000.0,3280.0,376.0,-1526.0
110.0,-49.0,2551.0,-141.0,-4000.0,3329.0,216.0,-1461.0
123.0,-72.0,1184.0,-151.0,-4000.0,3398.0,156.0,-1274.0
160.0,-77.0,-85.0,-104.0,-4000.0,3018.0,129.0,-1240.0
233.0,-55.0,-1492.0,-76.0,-4000.0,2942.0,199.0,-1013.0
220.0,-32.0,-1882.0,-96.0,-4000.0,2680.0,214.0,-1013.0
137.0,22.0,-2021.0,-121.0,-4000.0,2385.0,-64.0,-940.0
269.0,180.0,-2656.0,-149.0,-4000.0,2189.0,54.0,-853.0
269.0,306.0,-2279.0,-128.0,-4000.0,1991.0,359.0,-940.0
51.0,323.0,703.0,-188.0,-4000.0,1824.0,921.0,-936.0
-90.0,235.0,3043.0,-217.0,-4000.0,1539.0,497.0,-948.0
101.0,148.0,3316.0,-230.0,-4000.0,1352.0,-1115.0,-931.0
334.0,87.0,1965.0,-267.0,-4000.0,1124.0,-1527.0,-948.0
212.0,-80.0,-997.0,-279.0,-3701.0,860.0,-363.0,-362.0
-125.0,-373.0,-3211.0,-279.0,-2860.0,601.0,1019.0,274.0
-443.0,-505.0,-4000.0,-165.0,-2147.0,376.0,1341.0,123.0
-540.0,-358.0,-3668.0,-94.0,-1310.0,180.0,693.0,63.0
-317.0,-167.0,-2954.0,-71.0,-856.0,27.0,321.0,136.0
86.0,-27.0,-1297.0,-46.0,-223.0,-57.0,661.0,136.0
762.0,51.0,112.0,-37.0,603.0,-344.0,707.0,210.0
660.0,40.0,-1732.0,-23.0,920.0,-476.0,-161.0,247.0
-266.0,44.0,-2501.0,-38.0,2113.0,-532.0,-986.0,322.0
-504.0,-11.0,-1476.0,38.0,3281.0,-737.0,-1258.0,424.0
-655.0,12.0,-4.0,142.0,3904.0,-796.0,-1583.0,472.0
-645.0,68.0,671.0,170.0,4000.0,-810.0,-1571.0,419.0
-237.0,73.0,931.0,109.0,4000.0,-875.0,-1652.0,438.0
-85.0,70.0,1228.0,46.0,4000.0,-924.0,-1816.0,772.0
-183.0,85.0,1314.0,-25.0,4000.0,-923.0,-1716.0,491.0
-166.0,251.0,1571.0,-84.0,4000.0,-971.0,-1832.0,-13.0
139.0,343.0,1379.0,-66.0,4000.0,-988.0,-1690.0,-292.0
180.0,346.0,996.0,-72.0,4000.0,-982.0,-1636.0,-512.0
196.0,273.0,1197.0,-92.0,4000.0,-861.0,-1527.0,-659.0
212.0,239.0,1367.0,-93.0,4000.0,-640.0,-1199.0,-673.0
196.0,254.0,1163.0,-64.0,4000.0,-485.0,-802.0,-366.0
130.0,227.0,1053.0,-90.0,4000.0,-253.0,-722.0,10.0
-101.0,214.0,961.0,-96.0,4000.0,-15.0,-1637.0,395.0
-255.0,186.0,840.0,-73.0,4000.0,246.0,-2691.0,483.0
-182.0,140.0,787.0,-64.0,4000.0,463.0,-3236.0,503.0
175.0,115.0,728.0,-48.0,4000.0,219.0,-3920.0,148.0
281.0,208.0,612.0,-38.0,4000.0,-159.0,-4000.0,62.0
135.0,233.0,728.0,-10.0,4000.0,-521.0,-3326.0,182.0
465.0,200.0,1119.0,10.0,4000.0,-1121.0,-1767.0,490.0
1194.0,156.0,1704.0,56.0,4000.0,-1847.0,456.0,1091.0
1441.0,95.0,1835.0,67.0,4000.0,-2310.0,2423.0,1456.0
1124.0,52.0,1562.0,87.0,4000.0,-2403.0,3903.0,1650.0
1059.0,-13.0,663.0,132.0,4000.0,-2722.0,3347.0,1595.0
973.0,-96.0,-781.0,134.0,3855.0,-3123.0,3532.0,1728.0
1433.0,-220.0,-1557.0,144.0,3167.0,-2673.0,3535.0,1241.0
1506.0,-200.0,-1229.0,144.0,2502.0,-529.0,2883.0,1308.0
544.0,-140.0,280.0,161.0,2112.0,831.0,2696.0,1142.0
965.0,-128.0,760.0,199.0,1417.0,510.0,1475.0,324.0
1043.0,-125.0,-318.0,238.0,815.0,476.0,909.0,269.0
0.0,-99.0,-1452.0,270.0,328.0,197.0,286.0,-260.0
-779.0,-120.0,-2300.0,252.0,-96.0,237.0,331.0,-549.0
-2010.0,-80.0,-2123.0,185.0,-476.0,368.0,32.0,-390.0
-2320.0,60.0,-1667.0,112.0,-490.0,225.0,-318.0,106.0
-2418.0,75.0,-847.0,102.0,-460.0,309.0,-219.0,42.0
-2957.0,17.0,-422.0,142.0,-534.0,196.0,-475.0,-26.0
-3099.0,-57.0,-241.0,272.0,-604.0,203.0,-345.0,42.0
-2773.0,-71.0,-45.0,504.0,-812.0,105.0,-359.0,-113.0
-2285.0,-63.0,-45.0,442.0,-974.0,118.0,-146.0,24.0
-1733.0,11.0,251.0,-1.0,-1120.0,180.0,-128.0,-120.0
-1045.0,37.0,153.0,-198.0,-1137.0,140.0,-14.0,-92.0
-1217.0,5.0,190.0,-344.0,-1292.0,48.0,138.0,-91.0
-386.0,47.0,172.0,-418.0,-1383.0,201.0,268.0,25.0
346.0,111.0,4.0,-253.0,-1398.0,439.0,283.0,151.0
55.0,116.0,-11.0,-152.0,-1488.0,347.0,264.0,134.0
29.0,60.0,-44.0,-65.0,-1601.0,479.0,233.0,116.0
-719.0,52.0,-26.0,-60.0,-1737.0,201.0,-55.0,79.0
-844.0,-1.0,-72.0,97.0,-1703.0,-521.0,-146.0,135.0
447.0,-99.0,-149.0,215.0,-2029.0,-780.0,-355.0,225.0
1755.0,-139.0,-29.0,264.0,-2741.0,-745.0,-350.0,274.0
2987.0,-111.0,396.0,303.0,-2277.0,-391.0,-90.0,124.0
3038.0,-131.0,385.0,211.0,-1333.0,339.0,533.0,204.0
2324.0,-192.0,280.0,56.0,-2224.0,685.0,1214.0,332.0
2222.0,-176.0,577.0,23.0,-1272.0,636.0,1158.0,196.0
1832.0,-151.0,866.0,61.0,-142.0,361.0,942.0,-187.0
887.0,-163.0,858.0,2.0,-575.0,-179.0,693.0,-718.0
-18.0,-114.0,290.0,-39.0,-182.0,402.0,571.0,-1019.0
-78.0,-43.0,-102.0,-96.0,-624.0,1539.0,628.0,-1613.0
-418.0,-80.0,-222.0,-73.0,-436.0,1222.0,538.0,-1859.0
-1084.0,-110.0,-200.0,-42.0,-649.0,1124.0,559.0,-931.0
-1152.0,-112.0,-152.0,-16.0,-718.0,1092.0,603.0,209.0
-620.0,-165.0,-125.0,-3.0,-582.0,520.0,587.0,896.0
-437.0,-147.0,93.0,8.0,-744.0,141.0,563.0,1085.0
-1039.0,4.0,260.0,12.0,-486.0,-279.0,474.0,1003.0
-1300.0,125.0,356.0,-52.0,-451.0,-154.0,433.0,851.0
-1149.0,99.0,389.0,-30.0,-120.0,-71.0,403.0,384.0
-396.0,81.0,523.0,-54.0,-45.0,-358.0,348.0,-496.0
-124.0,57.0,541.0,-97.0,219.0,-240.0,236.0,-1148.0
952.0,28.0,441.0,-76.0,348.0,281.0,127.0,-1065.0
1319.0,95.0,241.0,-105.0,414.0,347.0,111.0,-809.0
408.0,128.0,-2.0,-133.0,428.0,321.0,62.0,-846.0
199.0,102.0,-148.0,-105.0,432.0,607.0,-19.0,-673.0
-33.0,91.0,-548.0,-72.0,444.0,719.0,-27.0,4.0
325.0,46.0,-628.0,-89.0,178.0,38.0,1.0,426.0
798.0,-32.0,-552.0,-145.0,-47.0,-1382.0,-68.0,719.0
958.0,-17.0,-519.0,-151.0,-79.0,-2271.0,-251.0,530.0
-177.0,109.0,-164.0,-143.0,100.0,-1441.0,-320.0,-512.0
-1149.0,193.0,1444.0,-116.0,-103.0,-676.0,-280.0,-844.0
-1585.0,156.0,4000.0,-41.0,-299.0,-371.0,-388.0,-627.0
-1552.0,120.0,4000.0,-13.0,-288.0,528.0,-620.0,-605.0
-413.0,109.0,2005.0,-3.0,-291.0,636.0,-802.0,-352.0
595.0,79.0,2876.0,-6.0,-547.0,-94.0,-672.0,63.0
1116.0,122.0,638.0,-123.0,-1164.0,-345.0,-383.0,503.0
493.0,176.0,-4000.0,-241.0,-1703.0,425.0,-55.0,731.0
929.0,182.0,-4000.0,-187.0,-1782.0,1006.0,303.0,992.0
1175.0,152.0,-4000.0,-64.0,-1963.0,1273.0,467.0,988.0
-502.0,70.0,-2250.0,1.0,-2222.0,1063.0,693.0,-56.0
-830.0,8.0,1045.0,3.0,-2509.0,571.0,795.0,-1200.0
185.0,-64.0,1310.0,16.0,-3642.0,-137.0,738.0,-1511.0
1221.0,-105.0,-678.0,92.0,-4000.0,-932.0,734.0,-1339.0
1572.0,-70.0,-3408.0,150.0,-4000.0,-1330.0,622.0,-1013.0
3249.0,-35.0,-3864.0,170.0,-4000.0,-1396.0,620.0,-1104.0
4000.0,-71.0,-3937.0,230.0,-4000.0,-997.0,491.0,-1319.0
4000.0,-137.0,-1944.0,141.0,-4000.0,-875.0,380.0,-769.0
1181.0,-202.0,2356.0,60.0,-4000.0,-810.0,265.0,74.0
1254.0,-255.0,3756.0,85.0,-4000.0,-731.0,-3.0,1547.0
3884.0,-200.0,1106.0,69.0,-1324.0,-1118.0,-133.0,1986.0
4000.0,-128.0,-628.0,131.0,1075.0,-1168.0,-233.0,782.0
1515.0,-34.0,-2110.0,160.0,2425.0,-976.0,183.0,1069.0
3367.0,-16.0,-2744.0,170.0,4000.0,-1004.0,667.0,2118.0
-1501.0,-152.0,-1282.0,118.0,3788.0,-940.0,889.0,2433.0
-4000.0,-333.0,-578.0,-13.0,-574.0,-1112.0,1770.0,2302.0
-4000.0,-476.0,394.0,-120.0,-3444.0,-517.0,2036.0,1977.0
-4000.0,-444.0,567.0,-200.0,-1534.0,1033.0,1800.0,1989.0
-4000.0,-293.0,621.0,-113.0,747.0,1573.0,1996.0,2118.0
-4000.0,52.0,328.0,-126.0,3558.0,1787.0,1602.0,2284.0
-1996.0,338.0,125.0,-198.0,4000.0,2045.0,1345.0,2550.0
-2179.0,512.0,402.0,-41.0,4000.0,1590.0,1410.0,3144.0
-2889.0,583.0,251.0,-51.0,4000.0,887.0,1475.0,4000.0
-844.0,731.0,793.0,-43.0,4000.0,78.0,2191.0,4000.0
530.0,849.0,1119.0,120.0,4000.0,-354.0,3216.0,4000.0
1897.0,672.0,1347.0,25.0,4000.0,-237.0,4000.0,2313.0
2534.0,550.0,1257.0,-76.0,4000.0,602.0,4000.0,-415.0
2728.0,294.0,1240.0,-137.0,4000.0,1136.0,4000.0,-1494.0
2663.0,-35.0,1062.0,-222.0,4000.0,1508.0,3745.0,-2456.0
2911.0,-379.0,695.0,-232.0,4000.0,1722.0,3347.0,-3113.0
2809.0,-705.0,410.0,-233.0,4000.0,1417.0,2973.0,-3414.0
2663.0,-761.0,172.0,-57.0,4000.0,1604.0,2426.0,-3669.0
2222.0,-700.0,278.0,144.0,4000.0,1655.0,962.0,-3593.0
1897.0,-618.0,270.0,207.0,3269.0,1533.0,-1234.0,-3667.0
1885.0,-395.0,511.0,211.0,1865.0,1207.0,-2223.0,-4000.0
908.0,-102.0,1158.0,260.0,1799.0,896.0,-1507.0,-4000.0
277.0,85.0,1835.0,301.0,3072.0,548.0,-729.0,-3935.0
2028.0,86.0,1283.0,174.0,1124.0,20.0,-1071.0,-2611.0
4000.0,-53.0,1375.0,116.0,-3474.0,57.0,-1527.0,-1697.0
3884.0,-214.0,1835.0,-72.0,-4000.0,554.0,-2186.0,-1078.0
-2024.0,-299.0,1574.0,-273.0,-4000.0,1018.0,-2923.0,-496.0
-2708.0,-379.0,3316.0,-234.0,-4000.0,1124.0,-3082.0,78.0
-1300.0,-399.0,3251.0,-169.0,-4000.0,596.0,-3000.0,503.0
154.0,-280.0,569.0,-206.0,-4000.0,-663.0,-2988.0,360.0
1611.0,-23.0,-1297.0,-218.0,-4000.0,-1550.0,-2740.0,556.0
2067.0,178.0,-1601.0,-214.0,-4000.0,-1447.0,-1583.0,680.0
2132.0,213.0,-1321.0,-433.0,-4000.0,-397.0,306.0,-221.0
1767.0,290.0,-3307.0,-417.0,-4000.0,445.0,1670.0,-562.0
1108.0,248.0,-4000.0,-283.0,-4000.0,299.0,818.0,361.0
-505.0,225.0,-4000.0,-288.0,-4000.0,-358.0,-876.0,935.0
-815.0,212.0,-4000.0,-168.0,-4000.0,-1127.0,-2859.0,1468.0
-388.0,95.0,-2189.0,48.0,-4000.0,-940.0,-4000.0,1792.0
-5.0,-14.0,-841.0,245.0,-4000.0,-474.0,-4000.0,1595.0
-203.0,-242.0,-1134.0,329.0,-4000.0,-220.0,-4000.0,1586.0
-388.0,-244.0,-1410.0,286.0,-4000.0,376.0,-4000.0,1541.0
-90.0,63.0,-77.0,142.0,-4000.0,441.0,-4000.0,1763.0
-50.0,347.0,447.0,217.0,-4000.0,738.0,-4000.0,1977.0
-1.0,447.0,546.0,402.0,-4000.0,1966.0,-3000.0,2054.0
-24.0,737.0,533.0,425.0,-3868.0,2254.0,-1716.0,1346.0
308.0,855.0,439.0,524.0,-34.0,1474.0,-404.0,222.0
275.0,784.0,996.0,613.0,1853.0,1092.0,-1168.0,-492.0
804.0,652.0,975.0,487.0,4000.0,817.0,-1625.0,-1175.0
2287.0,233.0,1029.0,394.0,4000.0,101.0,-1728.0,-2723.0
2922.0,-108.0,1045.0,313.0,4000.0,-485.0,-1990.0,-4000.0
177.0,-552.0,1021.0,295.0,4000.0,-1182.0,-1716.0,-4000.0
-2773.0,-872.0,968.0,272.0,4000.0,-1915.0,-1533.0,-1735.0
-3424.0,-919.0,988.0,287.0,4000.0,-2402.0,-1291.0,-594.0
-3476.0,-822.0,1283.0,255.0,4000.0,-2286.0,-1462.0,-2024.0
-2659.0,-696.0,1561.0,67.0,4000.0,-2528.0,-1422.0,-2063.0
-957.0,-631.0,1908.0,152.0,4000.0,-3252.0,-1468.0,-1013.0
4000.0,-558.0,2160.0,261.0,4000.0,-1650.0,-1503.0,564.0
4000.0,-505.0,2195.0,179.0,4000.0,44.0,-1312.0,2901.0
4000.0,-437.0,1627.0,-239.0,4000.0,-285.0,-1038.0,4000.0
-4000.0,-326.0,565.0,-696.0,4000.0,-641.0,-787.0,4000.0
-4000.0,-59.0,-10.0,-979.0,4000.0,-912.0,-790.0,1130.0
-4000.0,115.0,337.0,-1492.0,4000.0,-607.0,-711.0,-1061.0
-4000.0,168.0,891.0,-1857.0,4000.0,-468.0,-555.0,-1404.0
-4000.0,359.0,1452.0,-2053.0,4000.0,-750.0,-176.0,-350.0
-2114.0,607.0,1303.0,-2145.0,4000.0,-423.0,380.0,2119.0
163.0,900.0,-912.0,-1935.0,4000.0,843.0,795.0,1728.0
1149.0,1136.0,-3095.0,-1486.0,4000.0,1854.0,858.0,434.0
-341.0,1249.0,-3718.0,-1096.0,4000.0,2056.0,1125.0,-105.0
-2374.0,933.0,-3213.0,-784.0,4000.0,2099.0,1670.0,-456.0
-1105.0,300.0,-2318.0,-263.0,4000.0,2359.0,2321.0,-168.0
277.0,-39.0,-1714.0,126.0,4000.0,2771.0,2322.0,723.0
854.0,4.0,-678.0,290.0,4000.0,2580.0,1801.0,1793.0
1702.0,212.0,-450.0,429.0,4000.0,3005.0,3021.0,1989.0
2024.0,93.0,-350.0,504.0,2439.0,3491.0,4000.0,1248.0
2744.0,-55.0,-694.0,503.0,902.0,3604.0,2712.0,-305.0
1791.0,110.0,-1288.0,524.0,1704.0,3621.0,-598.0,-818.0
713.0,152.0,-373.0,644.0,3859.0,3138.0,-3928.0,-750.0
947.0,89.0,476.0,459.0,3679.0,2617.0,-4000.0,-889.0
1807.0,-127.0,793.0,207.0,4000.0,1852.0,-4000.0,-649.0
2939.0,-552.0,712.0,499.0,3837.0,1009.0,-4000.0,-659.0
2157.0,-793.0,541.0,882.0,3464.0,758.0,-4000.0,-555.0
686.0,-497.0,331.0,1371.0,4000.0,896.0,-2728.0,-555.0
477.0,-266.0,153.0,1696.0,3916.0,232.0,303.0,-496.0
-91.0,-343.0,461.0,1450.0,1639.0,-661.0,3803.0,50.0
-676.0,-310.0,646.0,1231.0,-1423.0,-1446.0,4000.0,676.0
-610.0,-346.0,606.0,1015.0,-2842.0,-2433.0,4000.0,727.0
-80.0,-218.0,526.0,668.0,-4000.0,-2922.0,4000.0,340.0
1189.0,-152.0,433.0,81.0,-4000.0,-3270.0,4000.0,-123.0
4000.0,-338.0,389.0,-637.0,-4000.0,-3600.0,4000.0,-669.0
4000.0,-371.0,253.0,-1272.0,-4000.0,-3583.0,4000.0,-1013.0
4000.0,-358.0,13.0,-1370.0,-4000.0,-3441.0,3347.0,-996.0
-2031.0,-438.0,-271.0,-833.0,-4000.0,-3104.0,3086.0,-1148.0
-4000.0,-566.0,-365.0,174.0,-4000.0,-2774.0,2843.0,-1339.0
-4000.0,-259.0,-116.0,1175.0,-4000.0,-2510.0,2582.0,-859.0
-4000.0,-74.0,195.0,1291.0,-4000.0,-2248.0,2255.0,-524.0
-4000.0,-122.0,476.0,1357.0,-4000.0,-1915.0,1723.0,-683.0
-2285.0,252.0,728.0,1216.0,-4000.0,-1701.0,1098.0,-775.0
-1084.0,542.0,1053.0,538.0,-4000.0,-1526.0,1064.0,-738.0
-3111.0,1162.0,1119.0,-112.0,-4000.0,-1205.0,1418.0,-650.0
-4000.0,1754.0,638.0,-1154.0,-4000.0,-1075.0,1540.0,-650.0
-3087.0,1583.0,-101.0,-1740.0,-4000.0,-1075.0,1711.0,-549.0
-1231.0,967.0,-641.0,-1952.0,-4000.0,-901.0,1858.0,-366.0
-256.0,631.0,-578.0,-1925.0,-4000.0,-810.0,1919.0,303.0
784.0,173.0,1824.0,-1834.0,-3312.0,-672.0,1658.0,1338.0
1429.0,-546.0,4000.0,-1710.0,-1072.0,44.0,1223.0,1338.0
1810.0,-855.0,4000.0,-682.0,1083.0,554.0,590.0,660.0
1634.0,-790.0,4000.0,-26.0,2113.0,506.0,217.0,662.0
1767.0,-800.0,-4000.0,83.0,2581.0,213.0,528.0,676.0
1594.0,-916.0,-4000.0,442.0,1799.0,-856.0,1658.0,522.0
1494.0,-793.0,-4000.0,728.0,532.0,-1672.0,2643.0,621.0
1372.0,-530.0,-4000.0,364.0,2711.0,-1251.0,2557.0,569.0
1181.0,60.0,-4000.0,-2.0,3903.0,-159.0,1801.0,536.0
1104.0,319.0,-3136.0,472.0,2760.0,339.0,1136.0,532.0
1085.0,615.0,-1881.0,771.0,2813.0,-417.0,183.0,580.0
1116.0,962.0,-821.0,139.0,1279.0,-1135.0,-1625.0,686.0
847.0,681.0,567.0,-316.0,2189.0,-476.0,-3444.0,591.0
716.0,465.0,241.0,-42.0,3020.0,1114.0,-4000.0,384.0
452.0,586.0,80.0,-230.0,3281.0,1012.0,-3733.0,97.0
447.0,867.0,1375.0,115.0,3789.0,-1330.0,-3538.0,-105.0
313.0,550.0,1544.0,472.0,3664.0,-3063.0,-2752.0,-70.0
36.0,160.0,1574.0,720.0,3269.0,-1782.0,-2251.0,-26.0
110.0,10.0,2347.0,1163.0,1547.0,-1265.0,-1917.0,286.0
169.0,-204.0,2083.0,858.0,686.0,-1617.0,-1035.0,695.0
111.0,-541.0,2455.0,644.0,-299.0,296.0,-180.0,660.0
-357.0,-1203.0,2135.0,622.0,-767.0,1204.0,702.0,308.0
-850.0,-1160.0,2159.0,720.0,-1398.0,2124.0,-202.0,-711.0
-698.0,-509.0,1769.0,634.0,-2044.0,2189.0,-1914.0,-3073.0
-211.0,-314.0,1257.0,191.0,-3001.0,1417.0,-3380.0,-4000.0
-215.0,-383.0,801.0,-319.0,-4000.0,1124.0,-3987.0,-4000.0
-193.0,-212.0,857.0,-201.0,-4000.0,486.0,-3897.0,-3850.0
-24.0,-179.0,2326.0,233.0,-4000.0,463.0,-3326.0,-2016.0
111.0,-15.0,2278.0,484.0,-4000.0,169.0,-920.0,1260.0
198.0,327.0,-147.0,472.0,-4000.0,113.0,1119.0,2025.0
198.0,912.0,-2578.0,323.0,-4000.0,158.0,1463.0,209.0
353.0,1358.0,-2889.0,264.0,244.0,460.0,1084.0,-979.0
393.0,1506.0,-1811.0,69.0,2421.0,758.0,693.0,-3667.0
303.0,1843.0,92.0,-332.0,2513.0,815.0,571.0,-3929.0
39.0,2025.0,2811.0,-940.0,4000.0,878.0,555.0,-1169.0
112.0,1683.0,2795.0,-1016.0,4000.0,498.0,469.0,1195.0
204.0,1193.0,-25.0,-645.0,4000.0,62.0,391.0,4000.0
-54.0,796.0,-1138.0,-409.0,4000.0,81.0,233.0,4000.0
-346.0,-181.0,-1602.0,-299.0,4000.0,589.0,-4.0,4000.0
-844.0,-1451.0,-1192.0,-507.0,4000.0,854.0,107.0,831.0
-1019.0,-2373.0,-781.0,-810.0,4000.0,1287.0,366.0,1003.0
-1218.0,-2810.0,-438.0,-719.0,4000.0,1474.0,376.0,3458.0
-1022.0,-2595.0,467.0,-181.0,3729.0,1092.0,242.0,3788.0
-316.0,-2164.0,923.0,231.0,4000.0,809.0,319.0,1892.0
-138.0,-2033.0,958.0,223.0,4000.0,961.0,299.0,1077.0
248.0,-1936.0,-247.0,69.0,4000.0,1468.0,170.0,719.0
608.0,-1627.0,199.0,6.0,2243.0,1473.0,362.0,-1856.0
798.0,-791.0,976.0,-49.0,2243.0,1269.0,628.0,-246.0
733.0,-137.0,606.0,-3.0,1992.0,1417.0,539.0,1519.0
235.0,-188.0,433.0,377.0,1409.0,1639.0,576.0,-1404.0
-357.0,-121.0,280.0,746.0,1247.0,1263.0,954.0,-2322.0
-575.0,-154.0,258.0,630.0,627.0,1279.0,1084.0,-3988.0
-379.0,57.0,124.0,376.0,-877.0,1340.0,1461.0,-4000.0
-620.0,374.0,104.0,251.0,-844.0,1018.0,1797.0,-2682.0
-604.0,451.0,-6.0,-82.0,988.0,738.0,1825.0,-1208.0
-351.0,594.0,-78.0,-324.0,621.0,167.0,1801.0,707.0
183.0,663.0,-135.0,-430.0,-1520.0,-2.0,1605.0,-953.0
725.0,672.0,-178.0,-393.0,-1701.0,-224.0,1475.0,-1256.0
833.0,615.0,-182.0,-301.0,-2289.0,-485.0,1380.0,-1826.0
733.0,621.0,-171.0,-218.0,-2924.0,-555.0,1602.0,-1206.0
-96.0,556.0,-133.0,-115.0,-3132.0,-645.0,1776.0,196.0
-213.0,615.0,-113.0,-7.0,-3001.0,-680.0,1640.0,-273.0
293.0,672.0,-107.0,36.0,-1853.0,-362.0,1605.0,2835.0
-203.0,615.0,-182.0,-5.0,-2818.0,-88.0,1455.0,2754.0
-741.0,542.0,-170.0,37.0,-3510.0,-897.0,1064.0,-3969.0
-756.0,420.0,-192.0,-263.0,-3237.0,-1486.0,919.0,-4000.0
-831.0,400.0,-198.0,-570.0,-3250.0,-1587.0,853.0,-3073.0
-562.0,331.0,-258.0,-841.0,-2318.0,-1634.0,759.0,1846.0
-274.0,335.0,-257.0,-1036.0,-1509.0,53.0,1033.0,4000.0
-123.0,335.0,-217.0,-920.0,-1164.0,1279.0,1381.0,4000.0
149.0,294.0,-193.0,-947.0,-1129.0,596.0,1705.0,914.0
174.0,278.0,-167.0,-979.0,-1185.0,380.0,2114.0,-3480.0
55.0,209.0,-193.0,-790.0,-1077.0,248.0,2514.0,-2747.0
-24.0,134.0,-187.0,-271.0,-176.0,506.0,2696.0,-3397.0
-123.0,95.0,-192.0,11.0,503.0,866.0,2890.0,-1430.0
-215.0,84.0,-178.0,-19.0,355.0,628.0,3151.0,-650.0
-242.0,34.0,-183.0,99.0,-144.0,246.0,3168.0,-63.0
-244.0,1.0,-202.0,179.0,-947.0,-378.0,3072.0,2883.0
-97.0,16.0,-228.0,287.0,-744.0,-297.0,2843.0,4000.0
315.0,3.0,-200.0,565.0,373.0,-156.0,2761.0,4000.0
870.0,38.0,-198.0,1816.0,1222.0,-517.0,2552.0,4000.0
1150.0,168.0,-154.0,4000.0,-291.0,-751.0,2252.0,4000.0
1175.0,213.0,-111.0,4000.0,-2676.0,-1112.0,1575.0,4000.0
1376.0,105.0,-126.0,4000.0,-3250.0,-1112.0,529.0,4000.0
1701.0,-84.0,-95.0,4000.0,-3689.0,-875.0,-195.0,4000.0
1216.0,-144.0,-94.0,4000.0,-3278.0,-861.0,-779.0,4000.0
127.0,-147.0,-50.0,4000.0,-338.0,-1127.0,-1227.0,4000.0
-331.0,-114.0,18.0,4000.0,3334.0,-1330.0,-1383.0,2078.0
-365.0,13.0,103.0,4000.0,2124.0,-792.0,-1318.0,-1115.0
-255.0,-2.0,130.0,3064.0,-1638.0,-9.0,-982.0,-4000.0
-215.0,-131.0,108.0,-3364.0,-1463.0,857.0,-101.0,-4000.0
1051.0,-228.0,126.0,-4000.0,-537.0,1292.0,930.0,-4000.0
2781.0,-247.0,69.0,-4000.0,-65.0,961.0,1280.0,-2763.0
1161.0,-239.0,-31.0,-4000.0,1918.0,-84.0,989.0,-2346.0
25.0,-110.0,-98.0,-4000.0,4000.0,-1461.0,889.0,1859.0
965.0,26.0,-122.0,-4000.0,4000.0,-1989.0,968.0,4000.0
-372.0,138.0,-102.0,-4000.0,1201.0,-1135.0,1208.0,4000.0
-1522.0,158.0,-114.0,-4000.0,635.0,610.0,2255.0,3552.0
-2089.0,229.0,52.0,-4000.0,-441.0,1182.0,3270.0,3275.0
-2467.0,583.0,98.0,-1211.0,-883.0,431.0,3429.0,2119.0
-2637.0,737.0,-73.0,1021.0,-934.0,398.0,2777.0,-290.0
-3205.0,607.0,-160.0,2803.0,-1528.0,902.0,1019.0,-1859.0
-3282.0,662.0,-180.0,3243.0,-1508.0,1521.0,-2402.0,-2617.0
-2957.0,475.0,-141.0,3324.0,-1951.0,1336.0,-4000.0,-3462.0
-1616.0,238.0,-186.0,3556.0,-1835.0,162.0,-4000.0,-3904.0
-850.0,143.0,-150.0,3816.0,-1292.0,-336.0,-4000.0,-4000.0
-407.0,-42.0,-132.0,4000.0,-306.0,-24.0,-4000.0,-4000.0
27.0,-6.0,-87.0,4000.0,129.0,278.0,-4000.0,-4000.0
80.0,-160.0,-40.0,3877.0,206.0,-332.0,-4000.0,-4000.0
346.0,-305.0,-37.0,3733.0,-74.0,-1942.0,-4000.0,-4000.0
456.0,-150.0,10.0,3556.0,-176.0,-2221.0,-4000.0,-4000.0
790.0,-19.0,107.0,3243.0,406.0,433.0,-4000.0,-4000.0
986.0,-163.0,207.0,2981.0,933.0,2710.0,-4000.0,-4000.0
1189.0,-193.0,110.0,2657.0,1378.0,1075.0,-4000.0,-4000.0
1194.0,-98.0,65.0,2412.0,1666.0,-129.0,-4000.0,-4000.0
821.0,-440.0,-263.0,2270.0,2386.0,1994.0,-2951.0,-4000.0
553.0,-771.0,-607.0,2022.0,3281.0,2940.0,-1513.0,-4000.0
660.0,-959.0,-315.0,1696.0,4000.0,1460.0,-1384.0,-4000.0
758.0,-1002.0,-347.0,1367.0,4000.0,38.0,-972.0,-4000.0
603.0,-1008.0,-1231.0,1119.0,4000.0,391.0,-290.0,-4000.0
863.0,-1082.0,-3872.0,891.0,4000.0,1083.0,-219.0,-4000.0
1440.0,-895.0,-4000.0,720.0,4000.0,542.0,246.0,-3740.0
2192.0,-525.0,-1700.0,554.0,4000.0,-131.0,598.0,-3203.0
2939.0,-273.0,3885.0,377.0,4000.0,-515.0,112.0,-327.0
2343.0,-199.0,4000.0,238.0,4000.0,-707.0,43.0,3910.0
654.0,-267.0,4000.0,207.0,4000.0,-501.0,1801.0,4000.0
-70.0,-179.0,4000.0,115.0,4000.0,480.0,3624.0,4000.0
-516.0,-11.0,3629.0,65.0,4000.0,628.0,3203.0,4000.0
-388.0,155.0,1517.0,36.0,4000.0,-546.0,1825.0,4000.0
-824.0,328.0,243.0,-12.0,4000.0,-1357.0,1575.0,4000.0
-1524.0,258.0,-288.0,4.0,4000.0,-1550.0,1454.0,4000.0
-1430.0,309.0,-1229.0,-13.0,3680.0,-208.0,-375.0,4000.0
-1686.0,441.0,-1541.0,-68.0,3008.0,1417.0,-2776.0,4000.0
-1735.0,542.0,-2151.0,-88.0,1734.0,1124.0,-3126.0,4000.0
-1546.0,782.0,-2151.0,-68.0,947.0,837.0,439.0,4000.0
-831.0,876.0,-1602.0,-155.0,467.0,2385.0,3661.0,4000.0
-407.0,811.0,-1297.0,-201.0,570.0,3214.0,3624.0,3976.0
-43.0,660.0,-1630.0,-267.0,953.0,2084.0,3075.0,2369.0
199.0,437.0,-3958.0,-359.0,154.0,89.0,2631.0,483.0
151.0,128.0,-4000.0,-481.0,-472.0,-985.0,2712.0,-219.0
361.0,-244.0,-4000.0,-580.0,-1012.0,-167.0,2125.0,140.0
315.0,-358.0,-2480.0,-565.0,-1463.0,1405.0,1391.0,-48.0
212.0,-310.0,1770.0,-594.0,-1685.0,2175.0,2255.0,-549.0
108.0,-352.0,4000.0,-594.0,-2212.0,699.0,3151.0,-1018.0
141.0,-295.0,4000.0,-604.0,-2421.0,-240.0,3542.0,-953.0
163.0,-170.0,-4000.0,-650.0,-2924.0,793.0,3298.0,-653.0
85.0,-105.0,-4000.0,-645.0,-3445.0,441.0,1996.0,-18.0
100.0,-103.0,-4000.0,-560.0,-3701.0,-722.0,746.0,265.0
235.0,-198.0,-4000.0,-484.0,-4000.0,-3209.0,238.0,148.0
609.0,-167.0,4000.0,-433.0,-4000.0,-4000.0,-298.0,304.0
564.0,14.0,4000.0,-485.0,-4000.0,-4000.0,-1488.0,-95.0
633.0,77.0,4000.0,-552.0,-4000.0,-2545.0,-2074.0,-1312.0
825.0,103.0,4000.0,-507.0,-3921.0,-2016.0,-1848.0,-2931.0
654.0,90.0,4000.0,-458.0,-3262.0,-4000.0,-2009.0,-4000.0
603.0,-77.0,4000.0,-438.0,-2531.0,-4000.0,-2549.0,-4000.0
-260.0,-91.0,4000.0,-393.0,-1898.0,-3645.0,-2988.0,-4000.0
-909.0,-32.0,1314.0,-312.0,-1638.0,-1518.0,-2985.0,-4000.0
-664.0,-56.0,-4000.0,-242.0,-1316.0,1769.0,-2495.0,-4000.0
-396.0,-2.0,-4000.0,-211.0,-1953.0,1473.0,-110.0,-2893.0
-285.0,45.0,-1166.0,-100.0,-2623.0,961.0,3009.0,-2071.0
-627.0,109.0,801.0,-44.0,-2368.0,795.0,4000.0,-1774.0
-1221.0,103.0,1104.0,-160.0,-1992.0,684.0,3773.0,-908.0
-1300.0,160.0,85.0,-129.0,-1534.0,815.0,2191.0,1047.0
-719.0,200.0,-1484.0,-163.0,-1572.0,628.0,1908.0,2937.0
-493.0,144.0,-1268.0,-154.0,-2451.0,738.0,1249.0,3588.0
-409.0,176.0,-2847.0,-30.0,-4000.0,278.0,-241.0,3340.0
-740.0,189.0,-1648.0,20.0,-4000.0,335.0,-1071.0,2354.0
-761.0,129.0,-906.0,85.0,-4000.0,180.0,-351.0,1436.0
-83.0,69.0,-1041.0,115.0,-4000.0,35.0,1345.0,606.0
190.0,145.0,-2094.0,191.0,-4000.0,111.0,1072.0,-536.0
452.0,182.0,-3176.0,189.0,-3628.0,-172.0,934.0,-1257.0
900.0,131.0,-4000.0,22.0,-3836.0,-130.0,881.0,-1469.0
1372.0,119.0,-4000.0,-77.0,-3904.0,586.0,-412.0,-1330.0
798.0,95.0,-4000.0,59.0,-3521.0,1824.0,-475.0,-1129.0
11.0,95.0,-3697.0,104.0,-3701.0,2503.0,-71.0,-1127.0
70.0,77.0,-2786.0,77.0,-4000.0,2243.0,1280.0,-1469.0
275.0,53.0,-3080.0,27.0,-4000.0,2125.0,2582.0,-2231.0
393.0,50.0,-3539.0,-39.0,-4000.0,2316.0,2826.0,-3203.0
905.0,20.0,-2407.0,-5.0,-3835.0,1340.0,3216.0,-3988.0
3804.0,34.0,-1347.0,46.0,-4000.0,-32.0,2696.0,-3840.0
4000.0,63.0,-2344.0,16.0,-4000.0,-1004.0,1971.0,-2995.0
3975.0,17.0,-2770.0,-165.0,-4000.0,-1038.0,1255.0,-1986.0
-844.0,-43.0,-344.0,-228.0,-4000.0,-859.0,1345.0,-862.0
-2517.0,-114.0,1224.0,-297.0,2057.0,-607.0,2190.0,264.0
-3019.0,-169.0,2225.0,-373.0,4000.0,857.0,1189.0,1118.0
-3099.0,-190.0,1438.0,-379.0,4000.0,1279.0,-546.0,1456.0
-3605.0,-188.0,1068.0,-300.0,4000.0,1325.0,-666.0,1460.0
-2387.0,-81.0,2913.0,-165.0,4000.0,1142.0,-326.0,1346.0
-1933.0,15.0,2224.0,-200.0,4000.0,693.0,-493.0,1266.0
-3028.0,76.0,-71.0,-299.0,4000.0,731.0,-1136.0,1384.0
-2683.0,140.0,-2627.0,-485.0,4000.0,693.0,-1884.0,1663.0
-1006.0,142.0,-183.0,-511.0,4000.0,1026.0,-1318.0,1859.0
2545.0,79.0,2525.0,-300.0,4000.0,268.0,-790.0,1924.0
4000.0,129.0,2221.0,-149.0,4000.0,-1582.0,889.0,2054.0
4000.0,2.0,1003.0,32.0,4000.0,-2909.0,1866.0,2507.0
3822.0,-206.0,-752.0,95.0,4000.0,-2480.0,481.0,3144.0
-824.0,-164.0,-2341.0,39.0,4000.0,-1550.0,-398.0,3996.0
-4000.0,-108.0,-4000.0,189.0,2842.0,-1518.0,-728.0,4000.0
-3870.0,-6.0,-3473.0,451.0,1787.0,-1780.0,-1228.0,4000.0
-4000.0,-20.0,-759.0,622.0,641.0,-489.0,-941.0,4000.0
-2708.0,-43.0,2539.0,678.0,45.0,1148.0,356.0,4000.0
-1039.0,-72.0,4000.0,815.0,-55.0,926.0,661.0,4000.0
1059.0,-118.0,1692.0,728.0,489.0,-174.0,1645.0,4000.0
1962.0,-31.0,-3303.0,467.0,349.0,-1737.0,1135.0,1085.0
778.0,23.0,-2745.0,323.0,-528.0,-1461.0,-985.0,-2295.0
315.0,57.0,-479.0,97.0,-732.0,361.0,-737.0,-3321.0
406.0,10.0,2146.0,-253.0,-466.0,1547.0,-707.0,-4000.0
570.0,-33.0,4000.0,-393.0,-49.0,2177.0,-2093.0,-4000.0
778.0,-44.0,3316.0,-83.0,-17.0,1840.0,-2610.0,-4000.0
908.0,-18.0,3885.0,4.0,-429.0,1188.0,-1651.0,-4000.0
888.0,90.0,3304.0,-103.0,-1375.0,953.0,1010.0,-4000.0
955.0,135.0,3626.0,-88.0,-2238.0,1442.0,2505.0,-4000.0
854.0,187.0,2924.0,-143.0,-3054.0,254.0,1060.0,-4000.0
929.0,270.0,903.0,-433.0,-3767.0,-1585.0,163.0,-4000.0
760.0,254.0,-1427.0,-979.0,-4000.0,-1961.0,-513.0,-4000.0
710.0,90.0,-3539.0,-1109.0,-4000.0,-2595.0,-1096.0,-4000.0
1423.0,-31.0,-2299.0,-829.0,-4000.0,-2386.0,-1113.0,-4000.0
3182.0,-66.0,-125.0,-497.0,-4000.0,-2819.0,-1360.0,-4000.0
4000.0,13.0,4000.0,-29.0,-4000.0,-2091.0,-1234.0,-1904.0
3884.0,63.0,4000.0,455.0,-4000.0,1063.0,-1441.0,-467.0
1156.0,-4.0,1003.0,655.0,-4000.0,1839.0,-1793.0,276.0
-679.0,41.0,-1198.0,453.0,-4000.0,888.0,-1962.0,988.0
-1882.0,12.0,-2513.0,185.0,-4000.0,274.0,-1816.0,1316.0
-2220.0,-150.0,-1557.0,-263.0,-4000.0,-304.0,-1250.0,1199.0
-1886.0,-293.0,-165.0,-609.0,-4000.0,-208.0,-750.0,-380.0
-1141.0,-325.0,-2385.0,-540.0,-4000.0,-175.0,-69.0,-2584.0
-569.0,-286.0,-3372.0,-193.0,-3868.0,0.0,608.0,-3667.0
-2114.0,-314.0,-1453.0,374.0,-3917.0,118.0,1098.0,-4000.0
-3609.0,-438.0,-95.0,598.0,-4000.0,272.0,1072.0,-4000.0
-3571.0,-379.0,779.0,590.0,-4000.0,551.0,475.0,-4000.0
-2628.0,-264.0,-1127.0,512.0,-3753.0,376.0,160.0,-4000.0
-2075.0,-231.0,-971.0,467.0,-3380.0,467.0,291.0,-3926.0
-1140.0,37.0,263.0,364.0,-2989.0,290.0,532.0,-974.0
381.0,305.0,107.0,167.0,-2289.0,376.0,1010.0,896.0
72.0,298.0,1041.0,-37.0,-1259.0,400.0,1194.0,1859.0
-170.0,160.0,837.0,-249.0,-159.0,467.0,945.0,2380.0
618.0,135.0,441.0,-352.0,933.0,563.0,396.0,2705.0
1018.0,37.0,-156.0,-290.0,2254.0,480.0,-371.0,3120.0
994.0,-63.0,-72.0,-95.0,3346.0,746.0,-900.0,3527.0
790.0,-112.0,695.0,-46.0,3989.0,628.0,-1332.0,4000.0
608.0,-179.0,1436.0,67.0,4000.0,415.0,-1423.0,4000.0
790.0,-45.0,-113.0,87.0,3722.0,54.0,-1193.0,4000.0
778.0,12.0,12.0,80.0,3606.0,-964.0,-917.0,3910.0
686.0,-53.0,3380.0,48.0,3493.0,-1232.0,-708.0,4000.0
692.0,-48.0,4000.0,-71.0,3476.0,-722.0,-157.0,4000.0
462.0,17.0,3575.0,-102.0,3410.0,-656.0,795.0,4000.0
333.0,69.0,1174.0,-141.0,2907.0,-1200.0,1353.0,4000.0
241.0,74.0,410.0,-159.0,2695.0,-1396.0,1528.0,4000.0
240.0,23.0,-128.0,-279.0,2825.0,-293.0,1657.0,4000.0
157.0,-39.0,-422.0,-312.0,2630.0,657.0,1469.0,3523.0
177.0,43.0,-1947.0,-153.0,2290.0,857.0,1052.0,3079.0
334.0,197.0,-3176.0,68.0,2189.0,1071.0,707.0,2051.0
342.0,244.0,-3368.0,166.0,2231.0,234.0,467.0,938.0
375.0,256.0,-3567.0,68.0,2443.0,-521.0,421.0,159.0
433.0,328.0,-3290.0,5.0,2760.0,-458.0,246.0,-692.0
447.0,305.0,-2542.0,226.0,2646.0,-489.0,155.0,-843.0
342.0,233.0,-1549.0,484.0,2317.0,-378.0,36.0,-55.0
92.0,162.0,-1333.0,496.0,1865.0,126.0,-485.0,425.0
-227.0,16.0,-1730.0,386.0,1601.0,809.0,-1308.0,1403.0
-515.0,-121.0,-2007.0,262.0,1527.0,641.0,-1588.0,3404.0
-779.0,-307.0,-290.0,81.0,1148.0,380.0,-1006.0,3812.0
-931.0,-275.0,-285.0,-34.0,725.0,267.0,-327.0,2419.0
-615.0,-48.0,-408.0,-21.0,651.0,44.0,283.0,725.0
-313.0,53.0,611.0,-44.0,227.0,-23.0,329.0,10.0
-242.0,90.0,385.0,-123.0,-523.0,-159.0,-273.0,-2165.0
-43.0,105.0,430.0,-239.0,-1398.0,-149.0,-500.0,-4000.0
160.0,93.0,541.0,-180.0,-2209.0,-252.0,-750.0,-2513.0
680.0,79.0,923.0,-102.0,-1766.0,-285.0,-1783.0,-15.0
1051.0,233.0,1133.0,-19.0,-1124.0,-434.0,-2512.0,397.0
194.0,424.0,1366.0,7.0,-681.0,-489.0,-2223.0,535.0
-730.0,395.0,1430.0,-41.0,-991.0,-287.0,-1264.0,837.0
-763.0,289.0,1285.0,12.0,-2173.0,-45.0,-449.0,483.0
-641.0,227.0,964.0,48.0,-1795.0,693.0,183.0,312.0
-302.0,87.0,520.0,158.0,-270.0,1227.0,824.0,-1135.0
222.0,-49.0,343.0,-98.0,896.0,1075.0,1475.0,-863.0
524.0,-202.0,130.0,-411.0,320.0,929.0,1996.0,261.0
151.0,-425.0,138.0,-429.0,-1109.0,719.0,1825.0,-801.0
-327.0,-562.0,241.0,-267.0,-2578.0,401.0,968.0,-189.0
-175.0,-600.0,408.0,-15.0,-4000.0,-4.0,268.0,536.0
163.0,-505.0,337.0,-74.0,-4000.0,-262.0,542.0,137.0
391.0,-207.0,362.0,-163.0,-4000.0,-182.0,707.0,-406.0
412.0,-20.0,373.0,-55.0,-4000.0,-137.0,303.0,-281.0
298.0,-58.0,234.0,56.0,-4000.0,-17.0,-130.0,74.0
27.0,-50.0,95.0,10.0,-4000.0,-129.0,-378.0,-169.0
-242.0,-106.0,81.0,19.0,-3575.0,310.0,-47.0,-714.0
-441.0,-59.0,169.0,84.0,-3312.0,1344.0,-65.0,-974.0
-493.0,77.0,148.0,139.0,-2611.0,1639.0,-555.0,-541.0
-67.0,164.0,169.0,581.0,-1717.0,1525.0,-412.0,-211.0
109.0,144.0,125.0,785.0,-614.0,1488.0,-438.0,-482.0
55.0,122.0,64.0,642.0,1266.0,1539.0,-646.0,-1326.0
215.0,189.0,-45.0,663.0,2189.0,1657.0,10.0,-870.0
300.0,209.0,-10.0,720.0,2878.0,1604.0,298.0,328.0
393.0,309.0,-5.0,488.0,4000.0,1397.0,286.0,860.0
342.0,453.0,-27.0,429.0,4000.0,1083.0,238.0,1012.0
240.0,476.0,-93.0,923.0,3201.0,880.0,498.0,1216.0
60.0,424.0,-311.0,915.0,1059.0,874.0,1124.0,1632.0
-179.0,412.0,-347.0,170.0,635.0,831.0,1410.0,980.0
-258.0,251.0,-480.0,-448.0,2646.0,752.0,1984.0,629.0
-232.0,138.0,-744.0,-962.0,4000.0,683.0,1658.0,1252.0
-238.0,328.0,-628.0,-1610.0,4000.0,467.0,1092.0,2575.0
-37.0,502.0,-237.0,-2131.0,4000.0,89.0,888.0,2948.0
334.0,347.0,-250.0,-2224.0,2308.0,-93.0,-124.0,1077.0
456.0,84.0,-362.0,-1754.0,2124.0,-120.0,-876.0,-146.0
440.0,-305.0,-219.0,-1109.0,3679.0,-227.0,-972.0,-398.0
277.0,-716.0,1.0,-1101.0,4000.0,-320.0,-1228.0,269.0
-110.0,-1031.0,56.0,-1819.0,3837.0,-383.0,-1716.0,808.0
-457.0,-1552.0,76.0,-2177.0,2907.0,-347.0,-2453.0,1573.0
-771.0,-1546.0,371.0,-1637.0,2810.0,-310.0,-2793.0,1912.0
-870.0,-1002.0,476.0,-659.0,1983.0,-532.0,-2186.0,1309.0
-392.0,-393.0,272.0,287.0,1163.0,-533.0,-737.0,1192.0
-34.0,-163.0,140.0,1450.0,626.0,-64.0,1084.0,1568.0
139.0,83.0,296.0,1631.0,190.0,-743.0,2256.0,1989.0
356.0,536.0,217.0,1059.0,-385.0,-2274.0,3282.0,1793.0
716.0,640.0,-84.0,1298.0,-608.0,-2569.0,4000.0,2078.0
1259.0,1038.0,-2.0,1493.0,-877.0,-2185.0,4000.0,2172.0
1149.0,1689.0,6.0,1696.0,-857.0,-1502.0,4000.0,2612.0
603.0,1370.0,-26.0,1566.0,-1052.0,-2016.0,4000.0,2739.0
370.0,923.0,-164.0,1302.0,-986.0,-2248.0,4000.0,2183.0
-71.0,900.0,-954.0,1175.0,-458.0,1012.0,4000.0,1308.0
-607.0,542.0,-1601.0,1249.0,335.0,1864.0,4000.0,-124.0
-836.0,400.0,-1616.0,960.0,764.0,-143.0,4000.0,-227.0
-1324.0,50.0,-943.0,-1081.0,1117.0,-440.0,3876.0,225.0
-1547.0,-121.0,-454.0,-1769.0,1456.0,-555.0,2190.0,438.0
-1001.0,-261.0,-243.0,378.0,1918.0,-1047.0,-387.0,35.0
-453.0,77.0,169.0,2543.0,2165.0,-844.0,-1173.0,-218.0
-144.0,1774.0,248.0,2916.0,1785.0,-247.0,-1637.0,-65.0
175.0,2338.0,80.0,1053.0,1163.0,-419.0,-1497.0,83.0
232.0,882.0,-373.0,352.0,-637.0,-390.0,-1914.0,35.0
398.0,-1532.0,-306.0,1225.0,-1489.0,-332.0,-2211.0,-366.0
277.0,-2757.0,-78.0,1021.0,-1737.0,-362.0,-3455.0,-278.0
-277.0,-1902.0,180.0,394.0,-1649.0,-23.0,-4000.0,14.0
-412.0,-1970.0,573.0,-223.0,-862.0,116.0,-4000.0,474.0
-736.0,-3424.0,964.0,767.0,-616.0,160.0,-4000.0,947.0
-957.0,-3188.0,801.0,2799.0,-386.0,8.0,-2988.0,1000.0
-280.0,-2500.0,-481.0,2543.0,314.0,78.0,-2180.0,678.0
699.0,-2627.0,-1213.0,313.0,1482.0,10.0,-1819.0,796.0
954.0,-2548.0,-1137.0,-1740.0,1639.0,-14.0,-2793.0,851.0
733.0,-2334.0,-971.0,-2831.0,706.0,21.0,-3816.0,645.0
361.0,-901.0,-641.0,-2381.0,-133.0,85.0,-4000.0,308.0
-20.0,335.0,-10.0,1473.0,-384.0,154.0,-4000.0,283.0
114.0,1374.0,1003.0,3975.0,-516.0,73.0,-4000.0,1272.0
473.0,2169.0,1452.0,352.0,-547.0,135.0,4000.0,1836.0
530.0,4000.0,1062.0,-4000.0,-732.0,226.0,4000.0,1272.0
583.0,4000.0,888.0,-4000.0,-811.0,432.0,2225.0,160.0
464.0,4000.0,634.0,-4000.0,-512.0,307.0,607.0,-555.0
-13.0,-373.0,764.0,-4000.0,12.0,-50.0,2843.0,-1083.0
-43.0,-65.0,1237.0,-4000.0,267.0,-204.0,2879.0,-1274.0
-313.0,2091.0,1163.0,-4000.0,-345.0,-459.0,1483.0,-1111.0
-655.0,-509.0,917.0,-4000.0,-983.0,-1127.0,1054.0,-1392.0
-824.0,-1590.0,463.0,-4000.0,-1259.0,-1486.0,576.0,-1762.0
-453.0,-1995.0,133.0,-1990.0,-1228.0,-901.0,-1783.0,-2128.0
553.0,-333.0,-310.0,1407.0,-1097.0,-548.0,-4000.0,-2283.0
1259.0,3079.0,-1288.0,4000.0,-1272.0,-293.0,-4000.0,-2122.0
834.0,233.0,-1171.0,4000.0,-2466.0,195.0,-4000.0,-1774.0
-12.0,-2242.0,-242.0,4000.0,-3661.0,156.0,-4000.0,-1339.0
-374.0,-3592.0,-204.0,3733.0,-2472.0,431.0,-4000.0,-1115.0
-934.0,-4000.0,-776.0,2140.0,1657.0,1313.0,-817.0,-1104.0
-802.0,-4000.0,-1158.0,-979.0,4000.0,1864.0,1605.0,-1018.0
-510.0,-2859.0,-576.0,-1887.0,4000.0,1592.0,-1887.0,-844.0
-553.0,-2255.0,121.0,-1565.0,2178.0,1006.0,-2597.0,-685.0
114.0,209.0,402.0,-1329.0,38.0,490.0,577.0,-1174.0
863.0,2091.0,773.0,-115.0,-1520.0,80.0,2777.0,-1859.0
986.0,3192.0,1574.0,1225.0,-3001.0,44.0,4000.0,-1925.0
1175.0,2738.0,2455.0,2970.0,-4000.0,168.0,392.0,-2941.0
1356.0,2063.0,2290.0,4000.0,-4000.0,276.0,-1262.0,-3992.0
465.0,2754.0,1452.0,3975.0,-2577.0,282.0,283.0,-3480.0
-461.0,1683.0,-358.0,4000.0,495.0,209.0,2190.0,-2519.0
-589.0,1526.0,-1785.0,4000.0,-160.0,41.0,2647.0,-2193.0
-457.0,1948.0,-1630.0,3194.0,-1253.0,-50.0,1143.0,-2230.0
-941.0,920.0,-1146.0,-711.0,-1292.0,44.0,1280.0,-1921.0
-1430.0,1193.0,-747.0,-3364.0,-186.0,41.0,-1030.0,-2035.0
-936.0,2491.0,-112.0,-2491.0,1006.0,44.0,-1201.0,-3073.0
-417.0,2529.0,394.0,-1435.0,1018.0,23.0,-1449.0,-4000.0
-384.0,1331.0,-53.0,-2177.0,857.0,-40.0,-2675.0,-4000.0
-301.0,731.0,-628.0,-3351.0,668.0,0.0,-3065.0,-4000.0
647.0,1510.0,-596.0,-4000.0,522.0,1.0,-3574.0,-3333.0
1307.0,1623.0,-466.0,-4000.0,253.0,-104.0,-3261.0,-3268.0
1110.0,1496.0,85.0,-4000.0,-352.0,-320.0,-3916.0,-2930.0
725.0,508.0,427.0,-4000.0,-299.0,-445.0,-3603.0,-1196.0
489.0,-175.0,195.0,-371.0,-28.0,-471.0,-4000.0,161.0
477.0,4000.0,-102.0,4000.0,-406.0,-468.0,-4000.0,252.0
-361.0,4000.0,-131.0,4000.0,-1488.0,-354.0,-4000.0,-48.0
-1866.0,4000.0,-152.0,4000.0,-2452.0,-354.0,-3922.0,-1005.0
-1950.0,4000.0,-242.0,4000.0,-2735.0,-33.0,510.0,-1615.0
-706.0,1331.0,541.0,4000.0,-1888.0,522.0,4000.0,-209.0
127.0,-4000.0,250.0,4000.0,-474.0,749.0,4000.0,4000.0
522.0,-4000.0,-622.0,3845.0,428.0,880.0,4000.0,4000.0
342.0,-4000.0,24.0,1480.0,961.0,713.0,1575.0,4000.0
412.0,-4000.0,361.0,-820.0,888.0,486.0,-3000.0,4000.0
386.0,-4000.0,318.0,-947.0,496.0,351.0,-3000.0,4000.0
240.0,-4000.0,337.0,45.0,725.0,-19.0,88.0,4000.0
95.0,-4000.0,476.0,2152.0,1629.0,-201.0,3984.0,4000.0
-562.0,-2595.0,889.0,4000.0,2356.0,-317.0,4000.0,2025.0
-942.0,-1155.0,1249.0,4000.0,2578.0,-392.0,4000.0,-142.0
-886.0,3441.0,1794.0,4000.0,3215.0,-362.0,4000.0,525.0
-89.0,4000.0,1599.0,1554.0,3680.0,-354.0,4000.0,3741.0
109.0,4000.0,1133.0,-2053.0,3397.0,-308.0,4000.0,4000.0
501.0,4000.0,-257.0,-1626.0,3476.0,-379.0,4000.0,4000.0
569.0,3441.0,-1478.0,-4000.0,3428.0,-455.0,4000.0,4000.0
-45.0,-297.0,-435.0,-4000.0,3281.0,-474.0,4000.0,4000.0
16.0,-1517.0,408.0,-4000.0,3085.0,-521.0,4000.0,4000.0
166.0,-3359.0,-465.0,-4000.0,2443.0,-464.0,4000.0,4000.0
-43.0,-4000.0,-2151.0,-4000.0,1930.0,-354.0,2973.0,3144.0
-245.0,-4000.0,-2871.0,-4000.0,1824.0,-194.0,1801.0,-514.0
399.0,-2320.0,-1974.0,-4000.0,1799.0,34.0,148.0,-3579.0
660.0,2819.0,-190.0,-4000.0,1248.0,118.0,-1262.0,-4000.0
238.0,4000.0,410.0,-3771.0,438.0,160.0,-2237.0,-4000.0
-3.0,4000.0,381.0,-3428.0,-712.0,137.0,-3105.0,-4000.0
-438.0,1606.0,280.0,-1793.0,-1998.0,-6.0,-3700.0,-4000.0
-767.0,-281.0,-275.0,4000.0,-3185.0,19.0,-4000.0,-4000.0
-1155.0,365.0,-617.0,4000.0,-4000.0,207.0,-4000.0,-4000.0
-1201.0,168.0,-628.0,4000.0,-4000.0,223.0,-4000.0,-4000.0
-767.0,1006.0,-229.0,4000.0,-4000.0,-41.0,-4000.0,-2344.0
-566.0,2738.0,110.0,4000.0,-4000.0,-29.0,-4000.0,-973.0
573.0,2997.0,95.0,4000.0,-4000.0,178.0,-4000.0,-985.0
1372.0,3193.0,-155.0,2216.0,-4000.0,41.0,-4000.0,-839.0
914.0,1945.0,-363.0,-2843.0,-4000.0,-59.0,-4000.0,-180.0
313.0,1778.0,-515.0,-4000.0,-4000.0,-54.0,-4000.0,-723.0
-518.0,2997.0,-212.0,-2326.0,-4000.0,72.0,-4000.0,-1595.0
-859.0,3978.0,272.0,-1805.0,-3988.0,82.0,-4000.0,-980.0
-1018.0,3323.0,272.0,-2778.0,-3586.0,-25.0,-4000.0,-1037.0
-647.0,2429.0,93.0,906.0,-3262.0,38.0,-4000.0,-948.0
422.0,3376.0,37.0,4000.0,-3066.0,24.0,-4000.0,-324.0
762.0,2919.0,183.0,4000.0,-3315.0,109.0,-4000.0,-1469.0
315.0,4000.0,237.0,4000.0,-3754.0,124.0,-4000.0,-2806.0
-331.0,4000.0,642.0,4000.0,-4000.0,231.0,-3855.0,-4000.0
-730.0,4000.0,1322.0,4000.0,-4000.0,396.0,-3261.0,-4000.0
62.0,4000.0,1495.0,4000.0,-4000.0,412.0,-2675.0,-4000.0
725.0,4000.0,1639.0,-2262.0,-4000.0,339.0,-2156.0,-4000.0
508.0,-1017.0,1497.0,-4000.0,-4000.0,274.0,-1586.0,-4000.0
424.0,-4000.0,-430.0,-965.0,-4000.0,485.0,-1113.0,-4000.0
373.0,-4000.0,-2782.0,-3376.0,-4000.0,563.0,-972.0,-4000.0
64.0,-4000.0,-3176.0,-4000.0,-3066.0,557.0,-839.0,-4000.0
-541.0,-4000.0,-2300.0,-4000.0,-1619.0,576.0,-648.0,-4000.0
-177.0,-4000.0,-1811.0,-4000.0,-364.0,520.0,-312.0,-4000.0
-31.0,-4000.0,-746.0,-4000.0,766.0,449.0,3.0,-2063.0
-628.0,-4000.0,-385.0,-4000.0,1733.0,441.0,40.0,550.0
-871.0,-4000.0,463.0,-4000.0,3476.0,400.0,261.0,3783.0
-710.0,-4000.0,976.0,-3417.0,4000.0,131.0,481.0,4000.0
-392.0,-2501.0,-389.0,-2017.0,4000.0,75.0,481.0,4000.0
-777.0,1488.0,-380.0,1696.0,4000.0,78.0,425.0,4000.0
-957.0,2482.0,-430.0,4000.0,4000.0,41.0,481.0,4000.0
-649.0,4000.0,-228.0,4000.0,4000.0,40.0,401.0,4000.0
-685.0,4000.0,276.0,4000.0,4000.0,-110.0,254.0,4000.0
-802.0,4000.0,253.0,4000.0,4000.0,-30.0,394.0,4000.0
-555.0,4000.0,476.0,4000.0,3208.0,155.0,441.0,4000.0
-510.0,4000.0,301.0,4000.0,4000.0,254.0,571.0,4000.0
-757.0,4000.0,-193.0,4000.0,4000.0,203.0,767.0,4000.0
-730.0,4000.0,-906.0,4000.0,4000.0,-28.0,942.0,4000.0
-378.0,4000.0,-160.0,3967.0,4000.0,-98.0,1444.0,3910.0
-433.0,4000.0,757.0,1696.0,4000.0,-83.0,1993.0,2496.0
-193.0,1526.0,1053.0,708.0,4000.0,-125.0,2061.0,-730.0
847.0,-4000.0,1571.0,968.0,4000.0,-143.0,2232.0,2689.0
1051.0,-4000.0,1249.0,310.0,4000.0,-68.0,2552.0,4000.0
1091.0,-4000.0,1387.0,-140.0,1258.0,153.0,2570.0,4000.0
1572.0,-4000.0,1240.0,-540.0,-1488.0,217.0,2557.0,3897.0
1701.0,-4000.0,1112.0,-438.0,-142.0,203.0,2357.0,2754.0
1606.0,2596.0,891.0,693.0,4000.0,231.0,2166.0,2371.0
1450.0,4000.0,343.0,518.0,4000.0,87.0,1866.0,1020.0
1307.0,4000.0,284.0,142.0,2943.0,39.0,1605.0,1319.0
994.0,278.0,133.0,482.0,1645.0,72.0,1457.0,586.0
961.0,-4000.0,183.0,1749.0,2035.0,127.0,1033.0,-1859.0
650.0,-4000.0,-8.0,3690.0,2124.0,-3.0,702.0,-2893.0
390.0,-4000.0,-38.0,4000.0,1272.0,-156.0,595.0,-2605.0
905.0,-4000.0,-234.0,4000.0,-1265.0,-203.0,490.0,-973.0
1372.0,-4000.0,-385.0,4000.0,-2729.0,-159.0,246.0,-1319.0
1384.0,-3871.0,-454.0,4000.0,-2843.0,5.0,25.0,-427.0
877.0,-1090.0,-694.0,-1528.0,-3060.0,-82.0,-72.0,2249.0
725.0,1908.0,-672.0,-4000.0,-2460.0,-62.0,-117.0,3600.0
200.0,4000.0,-890.0,-4000.0,-116.0,170.0,-306.0,1326.0
-1404.0,4000.0,-1036.0,-4000.0,1148.0,336.0,-581.0,-3655.0
-1829.0,4000.0,-833.0,-4000.0,920.0,408.0,-1006.0,-2605.0
-645.0,4000.0,-503.0,-4000.0,177.0,498.0,-1397.0,490.0
33.0,4000.0,-200.0,-4000.0,493.0,303.0,-1507.0,1272.0
322.0,4000.0,75.0,-4000.0,2060.0,-90.0,-1571.0,-98.0
525.0,4000.0,147.0,-4000.0,1799.0,-169.0,-1422.0,-455.0
530.0,4000.0,207.0,-1477.0,1222.0,-289.0,-1042.0,-974.0
699.0,4000.0,280.0,276.0,390.0,-342.0,-680.0,-4000.0
563.0,4000.0,299.0,994.0,24.0,-411.0,-359.0,-3191.0
583.0,4000.0,378.0,655.0,660.0,-513.0,65.0,-2747.0
416.0,4000.0,366.0,195.0,1704.0,-532.0,571.0,91.0
169.0,45.0,385.0,134.0,1059.0,-729.0,897.0,1568.0
-14.0,-3489.0,390.0,-80.0,-2389.0,-731.0,1205.0,1309.0
58.0,-4000.0,331.0,360.0,-4000.0,-680.0,1483.0,2510.0
168.0,-4000.0,92.0,459.0,-4000.0,-651.0,1658.0,163.0
-81.0,-4000.0,-283.0,634.0,-4000.0,-639.0,2086.0,-5.0
72.0,-4000.0,-643.0,490.0,-4000.0,-597.0,2777.0,399.0
195.0,-4000.0,-1484.0,286.0,-4000.0,-507.0,3398.0,2013.0
131.0,-4000.0,-2123.0,91.0,-4000.0,-521.0,3542.0,1216.0
5.0,-1785.0,-2045.0,-267.0,-1137.0,-398.0,3411.0,1150.0
-166.0,-411.0,-1881.0,-584.0,-1944.0,-227.0,3216.0,1156.0
-427.0,-365.0,-1765.0,-886.0,-3018.0,-71.0,2973.0,344.0
-614.0,-253.0,-1419.0,-894.0,-1945.0,-52.0,2492.0,384.0
-631.0,380.0,-688.0,-971.0,-738.0,-50.0,1735.0,-675.0
-631.0,803.0,-37.0,-914.0,130.0,22.0,903.0,-153.0
-574.0,1201.0,126.0,-920.0,837.0,0.0,213.0,43.0
-649.0,1258.0,-470.0,-1077.0,627.0,32.0,-167.0,499.0
-945.0,1396.0,-866.0,-1216.0,692.0,48.0,-394.0,7.0
-1137.0,1447.0,-847.0,-1161.0,589.0,12.0,-455.0,-240.0
-1016.0,1497.0,-1758.0,-979.0,1136.0,-43.0,-475.0,-220.0
-844.0,1453.0,-1823.0,-780.0,2124.0,-55.0,-517.0,-51.0
-541.0,1374.0,-711.0,-659.0,2947.0,-101.0,-592.0,102.0
-416.0,1618.0,793.0,-784.0,4000.0,-37.0,-708.0,-134.0
-691.0,1821.0,2718.0,-810.0,4000.0,155.0,-802.0,-59.0
-1152.0,1778.0,4000.0,-742.0,4000.0,355.0,-817.0,-332.0
-784.0,1506.0,4000.0,-580.0,4000.0,660.0,-774.0,-242.0
-72.0,1312.0,4000.0,-352.0,4000.0,778.0,-843.0,-517.0
10.0,1030.0,4000.0,-159.0,4000.0,687.0,-998.0,-584.0
134.0,1071.0,3445.0,-107.0,4000.0,571.0,-1184.0,-555.0
-40.0,1193.0,2412.0,116.0,4000.0,374.0,-1449.0,-529.0
-679.0,973.0,1508.0,287.0,4000.0,194.0,-1735.0,-500.0
-779.0,556.0,197.0,308.0,4000.0,31.0,-1944.0,-427.0
-311.0,225.0,-645.0,386.0,4000.0,-157.0,-1950.0,-350.0
199.0,147.0,-454.0,382.0,4000.0,-318.0,-1819.0,-321.0
1000.0,64.0,-314.0,499.0,3363.0,-375.0,-1625.0,-247.0
2288.0,46.0,-454.0,518.0,1601.0,-332.0,-1397.0,-278.0
3094.0,-117.0,-865.0,574.0,64.0,-221.0,-1368.0,-142.0
2809.0,-231.0,-2253.0,699.0,-1359.0,-90.0,-1271.0,-284.0
3041.0,-302.0,-4000.0,805.0,-2924.0,-35.0,-1271.0,-358.0
2777.0,-383.0,-4000.0,799.0,-3979.0,-2.0,-1422.0,-380.0
2223.0,-456.0,-4000.0,708.0,-4000.0,86.0,-1527.0,-424.0
1832.0,-476.0,-4000.0,504.0,-4000.0,274.0,-1572.0,-423.0
505.0,-456.0,-3278.0,280.0,-4000.0,496.0,-1462.0,-382.0
-2264.0,-509.0,-1036.0,287.0,-4000.0,687.0,-1519.0,-315.0
-4000.0,-397.0,1310.0,337.0,-4000.0,882.0,-1454.0,-449.0
-4000.0,-383.0,3561.0,490.0,-4000.0,1083.0,-1311.0,-305.0
-4000.0,-353.0,4000.0,524.0,-4000.0,1279.0,-1201.0,-251.0
-4000.0,-207.0,4000.0,590.0,-4000.0,1443.0,-1163.0,-81.0
-4000.0,-236.0,4000.0,649.0,-4000.0,1547.0,-1141.0,174.0
3650.0,-271.0,4000.0,548.0,-4000.0,1443.0,-854.0,153.0
4000.0,-208.0,4000.0,720.0,-4000.0,1012.0,-477.0,352.0
4000.0,-161.0,4000.0,915.0,-3663.0,641.0,-282.0,583.0
4000.0,-273.0,3885.0,842.0,-2676.0,548.0,-285.0,695.0
4000.0,-265.0,2148.0,565.0,-2925.0,471.0,-316.0,621.0
4000.0,-228.0,-220.0,402.0,-3586.0,455.0,-158.0,695.0
2353.0,-219.0,-3160.0,299.0,-3446.0,154.0,53.0,914.0
888.0,-176.0,-4000.0,89.0,-3381.0,-172.0,217.0,1122.0
-619.0,-229.0,-4000.0,6.0,-3521.0,166.0,441.0,1372.0
-3850.0,-248.0,-4000.0,-129.0,-3474.0,140.0,818.0,1391.0
-4000.0,-202.0,-4000.0,-265.0,-3576.0,-267.0,1092.0,1384.0
-4000.0,-167.0,-4000.0,-424.0,-3929.0,-446.0,1119.0,1272.0
-4000.0,-118.0,-3136.0,-507.0,-4000.0,-107.0,948.0,1207.0
-3997.0,-265.0,1282.0,-487.0,-3908.0,143.0,888.0,1182.0
-3424.0,-627.0,4000.0,-498.0,-3663.0,-428.0,962.0,1077.0
-1921.0,-996.0,4000.0,-495.0,-3213.0,-917.0,897.0,1012.0
-64.0,-1155.0,4000.0,-418.0,-3197.0,-1205.0,693.0,947.0
393.0,-1277.0,4000.0,-211.0,-3456.0,-926.0,767.0,816.0
45.0,-1472.0,4000.0,-100.0,-3701.0,-485.0,954.0,676.0
-301.0,-1247.0,4000.0,-42.0,-3640.0,-394.0,1049.0,531.0
-893.0,-1126.0,3170.0,-149.0,-3604.0,-506.0,1223.0,247.0
-2348.0,-1074.0,1543.0,-271.0,-3753.0,-620.0,1129.0,-49.0
-2348.0,-937.0,-60.0,-324.0,-3445.0,-14.0,903.0,-370.0
-946.0,-960.0,-1297.0,-481.0,-3120.0,293.0,934.0,-711.0
825.0,-875.0,-1862.0,-580.0,-2806.0,498.0,1011.0,-1046.0
2679.0,-793.0,-2448.0,-746.0,-2400.0,929.0,988.0,-1235.0
3674.0,-617.0,-3349.0,-902.0,-1963.0,784.0,529.0,-1429.0
3172.0,-456.0,-4000.0,-822.0,-1636.0,425.0,3.0,-1615.0
631.0,-518.0,-4000.0,-494.0,-990.0,246.0,50.0,-1801.0
-2611.0,-527.0,-4000.0,-289.0,-599.0,-227.0,439.0,-1925.0
-4000.0,-351.0,-4000.0,-230.0,-356.0,-982.0,514.0,-1957.0
-4000.0,-160.0,-3148.0,-51.0,-43.0,-856.0,439.0,-2004.0
-4000.0,56.0,-1403.0,-26.0,440.0,-448.0,196.0,-1921.0
-3734.0,394.0,-768.0,-2.0,1201.0,-855.0,-90.0,-1691.0
-473.0,586.0,-1229.0,142.0,1824.0,-1814.0,90.0,-1279.0
4000.0,598.0,-1813.0,220.0,2503.0,-2657.0,113.0,-853.0
4000.0,542.0,-3343.0,240.0,2825.0,-3103.0,-93.0,-480.0
4000.0,606.0,-3290.0,158.0,3008.0,-2504.0,97.0,-168.0
4000.0,681.0,474.0,366.0,3150.0,-1170.0,413.0,-39.0
4000.0,731.0,4000.0,1053.0,3202.0,-511.0,416.0,130.0
4000.0,788.0,4000.0,1470.0,3529.0,97.0,809.0,355.0
1102.0,876.0,4000.0,1169.0,4000.0,528.0,661.0,758.0
-1495.0,933.0,4000.0,1039.0,4000.0,1198.0,429.0,1346.0
-4000.0,868.0,3434.0,1241.0,4000.0,953.0,494.0,1846.0
-4000.0,868.0,1029.0,1601.0,4000.0,-596.0,155.0,2249.0
-4000.0,728.0,-13.0,1160.0,4000.0,-940.0,78.0,2484.0
-1260.0,672.0,-425.0,-276.0,4000.0,425.0,-5.0,2507.0
920.0,717.0,-450.0,-1272.0,4000.0,1657.0,-30.0,2507.0
888.0,686.0,-1072.0,-1740.0,4000.0,1390.0,-241.0,2479.0
-407.0,729.0,-1473.0,-1565.0,4000.0,1864.0,-313.0,2435.0
-3164.0,770.0,-1166.0,-1081.0,4000.0,1405.0,-176.0,2314.0
-3938.0,794.0,-1073.0,-191.0,3788.0,-130.0,-30.0,2219.0
-2452.0,728.0,-892.0,1416.0,3202.0,-641.0,164.0,2030.0
-417.0,615.0,-661.0,3228.0,3167.0,-620.0,359.0,1789.0
495.0,404.0,-937.0,3877.0,3215.0,-615.0,732.0,1568.0
440.0,200.0,-1229.0,2404.0,3281.0,-269.0,962.0,1216.0
-286.0,131.0,-1211.0,603.0,4000.0,132.0,897.0,707.0
-1141.0,77.0,-1150.0,-1024.0,4000.0,542.0,759.0,23.0
-784.0,26.0,-971.0,-2586.0,4000.0,1417.0,637.0,-683.0
306.0,-32.0,-841.0,-3219.0,2972.0,1026.0,521.0,-1384.0
1018.0,29.0,-698.0,-3221.0,1930.0,248.0,665.0,-2100.0
660.0,238.0,-542.0,-2831.0,144.0,374.0,689.0,-2849.0
172.0,343.0,-454.0,-2632.0,-1229.0,837.0,858.0,-3462.0
-566.0,412.0,-317.0,-1813.0,-2402.0,16.0,1667.0,-3825.0
-804.0,290.0,-180.0,-841.0,-2483.0,-2219.0,2114.0,-3874.0
-1010.0,25.0,-141.0,-74.0,-2209.0,-2170.0,1418.0,-3593.0
-1472.0,-102.0,-144.0,1086.0,-1833.0,-354.0,183.0,-3154.0
-1634.0,-215.0,-147.0,1371.0,-1426.0,896.0,-511.0,-2617.0
-1764.0,-199.0,-177.0,1231.0,-2609.0,1142.0,-530.0,-2024.0
-1277.0,-196.0,-222.0,980.0,-3575.0,548.0,-1254.0,-1404.0
-396.0,-206.0,-306.0,1013.0,-3844.0,180.0,-3184.0,-1013.0
251.0,-198.0,-277.0,1053.0,-2729.0,132.0,-3520.0,-1070.0
784.0,-171.0,-162.0,956.0,-855.0,324.0,-1853.0,-1298.0
1124.0,-76.0,57.0,1059.0,403.0,-98.0,-723.0,-1632.0
1038.0,28.0,137.0,972.0,432.0,-743.0,-652.0,-1904.0
778.0,92.0,-48.0,980.0,-547.0,-1461.0,-1030.0,-2101.0
521.0,155.0,-155.0,895.0,-853.0,-2077.0,-817.0,-2412.0
281.0,258.0,-265.0,829.0,-162.0,-1070.0,-272.0,-2682.0
-11.0,276.0,-168.0,784.0,509.0,-325.0,-417.0,-2698.0
-909.0,129.0,410.0,699.0,547.0,29.0,-1185.0,-2256.0
-1885.0,-86.0,1283.0,663.0,406.0,-173.0,-1527.0,-1404.0
-2640.0,-237.0,1952.0,598.0,456.0,-1550.0,-1397.0,-325.0
-2433.0,-214.0,2054.0,548.0,1003.0,-988.0,-1317.0,825.0
-1039.0,-95.0,1835.0,645.0,1118.0,681.0,-1497.0,1716.0
-59.0,-97.0,1543.0,773.0,621.0,2645.0,-1978.0,2380.0
1246.0,-48.0,1062.0,551.0,259.0,4000.0,-2355.0,2883.0
2715.0,-35.0,576.0,301.0,-437.0,4000.0,-2405.0,3209.0
3674.0,-2.0,105.0,98.0,-321.0,3835.0,-2180.0,3422.0
4000.0,52.0,-343.0,-95.0,277.0,953.0,-2353.0,3458.0
3650.0,40.0,-357.0,-206.0,29.0,-1396.0,-2622.0,3325.0
2909.0,31.0,-473.0,-409.0,-798.0,-2402.0,-2865.0,3133.0
1767.0,57.0,-682.0,-462.0,-1515.0,-3270.0,-2805.0,3120.0
559.0,103.0,-511.0,-143.0,-1077.0,-2209.0,-1944.0,3600.0
-285.0,106.0,-529.0,67.0,-551.0,-118.0,-1173.0,4000.0
-575.0,163.0,-672.0,73.0,-318.0,-200.0,-745.0,4000.0
-710.0,200.0,-867.0,171.0,-746.0,-729.0,1.0,4000.0
-889.0,210.0,-817.0,134.0,-1703.0,-570.0,1149.0,3079.0
-1016.0,241.0,-480.0,99.0,-2574.0,159.0,2321.0,3002.0
-1206.0,197.0,6.0,67.0,-3521.0,664.0,3217.0,2422.0
-1305.0,109.0,527.0,42.0,-4000.0,706.0,4000.0,-264.0
-2244.0,50.0,194.0,10.0,-4000.0,563.0,4000.0,-3647.0
-2011.0,-30.0,-2438.0,-129.0,-4000.0,595.0,4000.0,-4000.0
-941.0,-223.0,-4000.0,-241.0,-4000.0,738.0,4000.0,-4000.0
-935.0,-286.0,-4000.0,-247.0,-4000.0,469.0,4000.0,-4000.0
495.0,-155.0,-4000.0,-237.0,-3923.0,-15.0,3708.0,-4000.0
1300.0,-110.0,-137.0,-250.0,-3262.0,-232.0,2020.0,-2383.0
961.0,-144.0,4000.0,-265.0,-2887.0,143.0,-391.0,-974.0
1124.0,-127.0,4000.0,-275.0,-2843.0,105.0,-1739.0,-81.0
892.0,-125.0,4000.0,-179.0,-1776.0,-38.0,-1716.0,-236.0
162.0,-108.0,4000.0,-104.0,-853.0,195.0,1288.0,-348.0
-2721.0,-132.0,4000.0,-52.0,-351.0,473.0,4000.0,-803.0
-3883.0,-133.0,2989.0,-53.0,476.0,348.0,4000.0,-1115.0
342.0,-98.0,1283.0,-8.0,997.0,85.0,4000.0,-1735.0
3135.0,-104.0,-72.0,16.0,1443.0,97.0,4000.0,-1921.0
4000.0,-134.0,-1362.0,-23.0,1824.0,138.0,3917.0,-1677.0
4000.0,-118.0,-2216.0,-12.0,2165.0,276.0,1341.0,-1259.0
1018.0,-76.0,-3214.0,-70.0,2943.0,215.0,-424.0,-553.0
5.0,-94.0,-4000.0,-53.0,4000.0,179.0,-2339.0,-121.0
-518.0,-136.0,-3537.0,-100.0,4000.0,180.0,-3342.0,169.0
-510.0,-145.0,-1944.0,-175.0,4000.0,248.0,-2921.0,206.0
-553.0,-151.0,-747.0,-251.0,4000.0,235.0,-1318.0,304.0
-836.0,-182.0,1119.0,-418.0,4000.0,2.0,-385.0,255.0
-2323.0,-188.0,1033.0,-422.0,4000.0,41.0,-144.0,515.0
-4000.0,-218.0,1257.0,-366.0,4000.0,248.0,-658.0,988.0
-2655.0,-202.0,973.0,-393.0,4000.0,394.0,-1238.0,1338.0
351.0,-152.0,120.0,-520.0,4000.0,406.0,-917.0,1382.0
1311.0,-137.0,-507.0,-538.0,4000.0,246.0,-920.0,1045.0
2258.0,-108.0,-1229.0,-377.0,3877.0,131.0,-1038.0,591.0
2211.0,-106.0,-2241.0,-316.0,2513.0,-37.0,-1358.0,230.0
1181.0,-56.0,-2822.0,-323.0,1734.0,-84.0,-1781.0,319.0
738.0,0.0,-1667.0,-336.0,1460.0,53.0,-2169.0,569.0
-66.0,37.0,-2332.0,-370.0,1136.0,140.0,-2548.0,890.0
-118.0,-14.0,-3669.0,-322.0,998.0,281.0,-2663.0,947.0
-141.0,-137.0,-3611.0,-297.0,627.0,283.0,-2649.0,1004.0
-339.0,-157.0,-1882.0,-239.0,60.0,191.0,-2560.0,1020.0
-775.0,-100.0,1770.0,-208.0,-327.0,44.0,-2511.0,784.0
-736.0,-74.0,4000.0,-237.0,-1032.0,-184.0,-2353.0,629.0
-296.0,-106.0,4000.0,-190.0,-1318.0,-358.0,-2185.0,499.0
-154.0,-76.0,4000.0,-136.0,-1359.0,-515.0,-2028.0,515.0
-12.0,-59.0,2834.0,-131.0,-1433.0,-657.0,-1962.0,569.0
36.0,-53.0,1262.0,-104.0,-1207.0,-852.0,-1897.0,535.0
122.0,-30.0,316.0,-118.0,-1071.0,-985.0,-1781.0,485.0
220.0,-118.0,-50.0,-120.0,-990.0,-1056.0,-1514.0,629.0
357.0,-206.0,-347.0,-66.0,-902.0,-1070.0,-1128.0,850.0
13.0,-176.0,-1152.0,-65.0,-968.0,-1070.0,-901.0,992.0
-140.0,-118.0,-1618.0,-64.0,-781.0,-1186.0,-664.0,1112.0
-162.0,-134.0,-1166.0,-133.0,-309.0,-1115.0,-420.0,1136.0
-357.0,-155.0,-628.0,-101.0,-268.0,-1069.0,-163.0,1085.0
-580.0,-159.0,-479.0,-79.0,-42.0,-1198.0,99.0,1071.0
-895.0,-137.0,84.0,-118.0,342.0,-1330.0,216.0,1142.0
-702.0,-64.0,188.0,-63.0,562.0,-1633.0,199.0,1077.0
-314.0,46.0,50.0,-107.0,562.0,-1672.0,319.0,1012.0
-100.0,121.0,18.0,-131.0,635.0,-1330.0,349.0,927.0
66.0,134.0,-123.0,-133.0,792.0,-685.0,299.0,805.0
65.0,79.0,-103.0,-114.0,815.0,236.0,338.0,648.0
-150.0,13.0,-188.0,-95.0,938.0,1148.0,374.0,474.0
-150.0,-14.0,-283.0,-134.0,987.0,1538.0,441.0,434.0
-59.0,-12.0,-389.0,-116.0,831.0,1333.0,498.0,453.0
37.0,-16.0,-389.0,-88.0,534.0,1482.0,563.0,479.0
150.0,-36.0,-833.0,-92.0,425.0,1994.0,637.0,479.0
204.0,52.0,-1302.0,-75.0,575.0,2159.0,707.0,273.0
277.0,140.0,-1219.0,-57.0,1124.0,2047.0,684.0,-197.0
232.0,149.0,-1153.0,-63.0,1907.0,2112.0,759.0,-305.0
306.0,130.0,-847.0,-9.0,2513.0,1734.0,889.0,-149.0
203.0,77.0,-817.0,146.0,2825.0,1466.0,888.0,-150.0
92.0,0.0,-1407.0,351.0,3682.0,1604.0,883.0,-74.0
111.0,-109.0,-1081.0,199.0,4000.0,1083.0,795.0,-196.0
47.0,-120.0,-954.0,-188.0,4000.0,201.0,661.0,-195.0
39.0,-106.0,-694.0,-377.0,4000.0,-529.0,468.0,-44.0
-30.0,-149.0,-576.0,-498.0,4000.0,-997.0,267.0,-166.0
-10.0,-219.0,-799.0,-322.0,4000.0,-1263.0,79.0,-496.0
7.0,-314.0,1497.0,-148.0,4000.0,-1115.0,-60.0,-803.0
-5.0,-372.0,3788.0,-198.0,4000.0,-1253.0,-8.0,-549.0
-63.0,-383.0,4000.0,-130.0,4000.0,-1135.0,162.0,-338.0
-66.0,-422.0,4000.0,-45.0,3707.0,-403.0,345.0,-132.0
-77.0,-310.0,2859.0,54.0,1332.0,-401.0,467.0,20.0
-74.0,-194.0,1888.0,88.0,-2549.0,256.0,557.0,134.0
-11.0,-92.0,914.0,45.0,-4000.0,933.0,480.0,-9.0
-44.0,28.0,401.0,-18.0,-4000.0,858.0,368.0,-427.0
25.0,57.0,-271.0,20.0,-4000.0,888.0,349.0,-489.0
78.0,121.0,-1262.0,-8.0,-4000.0,870.0,352.0,-791.0
43.0,103.0,-1465.0,-46.0,-4000.0,880.0,526.0,-1018.0
65.0,110.0,-3030.0,62.0,-4000.0,732.0,622.0,-947.0
243.0,106.0,-4000.0,71.0,-4000.0,541.0,615.0,-750.0
393.0,79.0,-4000.0,22.0,-4000.0,412.0,661.0,-791.0
298.0,78.0,-1537.0,-78.0,-4000.0,684.0,684.0,-883.0
53.0,40.0,3238.0,-118.0,-4000.0,1006.0,717.0,-919.0
-86.0,38.0,4000.0,-202.0,-4000.0,967.0,595.0,-1380.0
-4.0,38.0,4000.0,-237.0,-4000.0,1092.0,506.0,-1860.0
8.0,57.0,2520.0,-136.0,-4000.0,932.0,602.0,-2256.0
-26.0,71.0,1379.0,-14.0,-4000.0,732.0,619.0,-2128.0
-20.0,36.0,430.0,170.0,-4000.0,523.0,576.0,-1723.0
-144.0,-46.0,-74.0,168.0,-4000.0,406.0,557.0,-1430.0
-374.0,-127.0,-454.0,167.0,-4000.0,636.0,498.0,-1381.0
-474.0,-108.0,-1002.0,137.0,-4000.0,858.0,339.0,-1064.0
-268.0,-62.0,-1427.0,-41.0,-4000.0,953.0,135.0,-262.0
-146.0,-69.0,-1106.0,-185.0,-2870.0,725.0,-5.0,515.0
-185.0,-71.0,-1231.0,-312.0,-2075.0,563.0,39.0,1263.0
-45.0,-46.0,-2151.0,-259.0,-1265.0,303.0,-43.0,1623.0
-14.0,-62.0,-971.0,-151.0,-547.0,142.0,-202.0,1912.0
-20.0,-62.0,-137.0,-149.0,144.0,153.0,-147.0,2154.0
40.0,9.0,44.0,-137.0,1258.0,265.0,-3.0,2284.0
65.0,74.0,139.0,-53.0,2178.0,449.0,243.0,2225.0
147.0,84.0,-141.0,92.0,3102.0,361.0,148.0,2248.0
253.0,74.0,-371.0,113.0,4000.0,-28.0,-156.0,2248.0
277.0,132.0,-312.0,109.0,4000.0,-1314.0,199.0,2051.0
151.0,144.0,180.0,134.0,4000.0,-2803.0,707.0,2119.0
-20.0,88.0,66.0,97.0,4000.0,-2750.0,1010.0,2013.0
-147.0,74.0,263.0,51.0,3102.0,-1505.0,1259.0,1960.0
-193.0,99.0,272.0,81.0,2124.0,400.0,1288.0,1914.0
-309.0,132.0,223.0,65.0,771.0,2254.0,1027.0,1830.0
-441.0,117.0,401.0,87.0,-170.0,2358.0,427.0,1769.0
-421.0,85.0,642.0,122.0,-847.0,1207.0,167.0,1586.0
-195.0,197.0,692.0,40.0,-354.0,-104.0,-161.0,1272.0
198.0,298.0,402.0,41.0,1409.0,-1115.0,-530.0,890.0
369.0,277.0,344.0,48.0,2124.0,-1672.0,-507.0,710.0
408.0,193.0,63.0,39.0,2060.0,-2008.0,-294.0,634.0
473.0,85.0,23.0,34.0,2243.0,-1876.0,628.0,686.0
433.0,-26.0,-21.0,43.0,2578.0,-1505.0,1259.0,686.0
460.0,20.0,125.0,64.0,2189.0,-1103.0,1214.0,727.0
530.0,131.0,198.0,96.0,1417.0,-1097.0,246.0,686.0
427.0,129.0,-79.0,81.0,1511.0,-862.0,-784.0,695.0
281.0,93.0,-99.0,56.0,3363.0,-23.0,-781.0,783.0
243.0,21.0,-57.0,65.0,4000.0,70.0,-1332.0,751.0
169.0,-29.0,-29.0,34.0,4000.0,-861.0,-2483.0,784.0
16.0,-104.0,50.0,50.0,4000.0,-2040.0,-2471.0,425.0
-69.0,-175.0,83.0,57.0,3606.0,-3010.0,-1168.0,-196.0
-121.0,-212.0,0.0,13.0,1855.0,-3763.0,-630.0,-718.0
-177.0,-198.0,-56.0,-14.0,896.0,-3441.0,-859.0,-924.0
-250.0,-120.0,-61.0,-44.0,497.0,-2608.0,-1071.0,-948.0
-323.0,-67.0,-38.0,-48.0,-346.0,-2575.0,-1243.0,-985.0
-250.0,54.0,-40.0,-45.0,-1731.0,-2105.0,-791.0,-1120.0
-170.0,143.0,52.0,1.0,-2531.0,-1196.0,-331.0,-1274.0
-185.0,227.0,189.0,69.0,-2924.0,-651.0,-188.0,-1387.0
-300.0,316.0,104.0,51.0,-2887.0,-281.0,-143.0,-1392.0
-343.0,258.0,107.0,20.0,-2180.0,70.0,-134.0,-1208.0
-286.0,182.0,207.0,11.0,-1358.0,200.0,-235.0,-1078.0
-192.0,111.0,125.0,-11.0,-150.0,260.0,-250.0,-738.0
-39.0,83.0,63.0,-26.0,1051.0,514.0,-326.0,-159.0
12.0,160.0,65.0,5.0,2907.0,724.0,-394.0,264.0
28.0,151.0,4.0,20.0,4000.0,929.0,-338.0,941.0
81.0,91.0,-49.0,20.0,4000.0,1026.0,-433.0,1912.0
163.0,68.0,-55.0,63.0,4000.0,1039.0,-445.0,2739.0
241.0,14.0,-75.0,81.0,4000.0,758.0,-424.0,3291.0
176.0,19.0,-32.0,57.0,4000.0,520.0,-410.0,3422.0
130.0,37.0,114.0,27.0,4000.0,555.0,-375.0,3340.0
147.0,35.0,172.0,26.0,4000.0,651.0,-359.0,2835.0
52.0,75.0,65.0,20.0,4000.0,651.0,-359.0,1568.0
-27.0,99.0,180.0,72.0,4000.0,354.0,-332.0,-738.0
-38.0,51.0,526.0,49.0,4000.0,228.0,-313.0,-4000.0
-39.0,18.0,541.0,-67.0,4000.0,368.0,-315.0,-4000.0
-42.0,40.0,179.0,-129.0,4000.0,492.0,-355.0,-4000.0
-99.0,21.0,-194.0,-133.0,4000.0,485.0,-384.0,-4000.0
-75.0,28.0,-224.0,-103.0,4000.0,415.0,-287.0,-4000.0
102.0,-1.0,-202.0,-123.0,4000.0,420.0,-217.0,-4000.0
346.0,-22.0,-458.0,-96.0,4000.0,325.0,-53.0,-4000.0
310.0,26.0,-729.0,-68.0,4000.0,56.0,93.0,-3333.0
72.0,44.0,-336.0,-47.0,3772.0,-212.0,172.0,-2276.0
149.0,115.0,251.0,69.0,4000.0,-416.0,297.0,-1518.0
277.0,200.0,-15.0,101.0,3707.0,-516.0,319.0,-622.0
176.0,160.0,-143.0,20.0,2581.0,-416.0,341.0,225.0
-27.0,2.0,284.0,1.0,1270.0,-35.0,368.0,751.0
-158.0,-80.0,50.0,31.0,444.0,667.0,402.0,817.0
-296.0,-111.0,-422.0,31.0,-20.0,1279.0,441.0,426.0
-311.0,-129.0,-259.0,-29.0,-968.0,1531.0,467.0,-209.0
-135.0,-150.0,244.0,-143.0,-1963.0,1722.0,413.0,-940.0
-126.0,-153.0,546.0,-173.0,-2389.0,1839.0,407.0,-1921.0
-177.0,-159.0,279.0,-140.0,-3018.0,1786.0,420.0,-2629.0
-201.0,-236.0,42.0,-65.0,-3728.0,1626.0,445.0,-2682.0
-211.0,-253.0,50.0,-33.0,-4000.0,1325.0,506.0,-1829.0
-132.0,-241.0,-4.0,-26.0,-4000.0,1063.0,490.0,-1176.0
-42.0,-182.0,-165.0,23.0,-4000.0,1077.0,481.0,-1245.0
118.0,-150.0,-580.0,37.0,-4000.0,1409.0,441.0,-1626.0
102.0,-141.0,-921.0,59.0,-4000.0,1590.0,455.0,-1298.0
-86.0,-118.0,-596.0,110.0,-4000.0,1222.0,455.0,6.0
-197.0,-125.0,-71.0,20.0,-4000.0,831.0,433.0,1307.0
-261.0,-125.0,-77.0,-133.0,-4000.0,490.0,460.0,2225.0
-207.0,-143.0,85.0,-214.0,-4000.0,180.0,433.0,2498.0
-178.0,-155.0,60.0,-251.0,-4000.0,17.0,416.0,2948.0
-161.0,-146.0,-57.0,-200.0,-4000.0,-118.0,327.0,2948.0
-107.0,-259.0,-96.0,-165.0,-4000.0,-102.0,220.0,2348.0
23.0,-314.0,-110.0,-140.0,-4000.0,14.0,90.0,1663.0
157.0,-261.0,134.0,-92.0,-4000.0,103.0,30.0,1142.0
249.0,-148.0,112.0,-67.0,-4000.0,229.0,25.0,1085.0
334.0,-15.0,118.0,1.0,-4000.0,292.0,-81.0,890.0
296.0,8.0,146.0,-41.0,-4000.0,282.0,-212.0,1221.0
92.0,-10.0,142.0,-83.0,-4000.0,351.0,-320.0,1183.0
-168.0,-25.0,135.0,-133.0,-4000.0,571.0,-375.0,719.0
-273.0,-3.0,146.0,-208.0,-4000.0,870.0,-332.0,590.0
-172.0,69.0,104.0,-217.0,-4000.0,1189.0,-187.0,473.0
-50.0,162.0,-6.0,-224.0,-4000.0,1344.0,-65.0,788.0
-41.0,205.0,-74.0,-178.0,-1766.0,1329.0,70.0,1329.0
7.0,233.0,-128.0,-160.0,1639.0,1182.0,148.0,1859.0
-16.0,227.0,-114.0,-100.0,4000.0,933.0,212.0,1924.0
-53.0,122.0,23.0,51.0,4000.0,563.0,238.0,1781.0
-49.0,85.0,112.0,93.0,4000.0,180.0,188.0,1724.0
-61.0,269.0,130.0,81.0,4000.0,-194.0,225.0,1727.0
-24.0,294.0,215.0,120.0,4000.0,-651.0,433.0,1541.0
24.0,178.0,169.0,174.0,4000.0,-802.0,642.0,1091.0
204.0,186.0,172.0,494.0,4000.0,-678.0,661.0,629.0
296.0,152.0,152.0,703.0,4000.0,-516.0,490.0,-7.0
168.0,121.0,68.0,320.0,4000.0,-226.0,315.0,-577.0
93.0,93.0,7.0,-32.0,4000.0,-51.0,242.0,-729.0
-13.0,79.0,-33.0,-206.0,4000.0,83.0,181.0,-671.0
-122.0,83.0,-38.0,-271.0,4000.0,78.0,132.0,-931.0
-157.0,95.0,-59.0,-17.0,4000.0,-102.0,59.0,-919.0
-240.0,102.0,-42.0,102.0,4000.0,-312.0,64.0,-557.0
-262.0,73.0,-70.0,102.0,4000.0,-582.0,54.0,-317.0
-272.0,73.0,-102.0,124.0,2825.0,-745.0,29.0,-297.0
-272.0,77.0,-147.0,286.0,1466.0,-810.0,25.0,-407.0
-292.0,67.0,-200.0,352.0,748.0,-685.0,22.0,-195.0
-256.0,60.0,-193.0,270.0,961.0,-415.0,25.0,63.0
-212.0,65.0,-154.0,236.0,812.0,-224.0,-2.0,49.0
-206.0,89.0,-143.0,71.0,50.0,-205.0,-23.0,-31.0
-203.0,85.0,-107.0,1.0,-1007.0,-358.0,75.0,-77.0
-138.0,46.0,-46.0,-31.0,-1833.0,-611.0,145.0,1.0
-11.0,56.0,-26.0,-115.0,-2094.0,-645.0,84.0,22.0
3.0,-11.0,5.0,-194.0,-2016.0,-505.0,-17.0,1.0
48.0,-36.0,-2.0,-169.0,-2159.0,-449.0,-81.0,-101.0
-85.0,-95.0,41.0,-182.0,-2931.0,-505.0,15.0,-235.0
-510.0,-201.0,63.0,-216.0,-3381.0,-532.0,116.0,-181.0
-323.0,-122.0,-20.0,-193.0,-3001.0,-416.0,123.0,-116.0
265.0,-120.0,-32.0,-178.0,-2057.0,-286.0,-68.0,-26.0
308.0,-72.0,-21.0,-136.0,-1267.0,-255.0,-159.0,-203.0
705.0,2.0,-32.0,-119.0,-1528.0,-474.0,90.0,-522.0
1051.0,-7.0,-21.0,-85.0,-2341.0,-696.0,249.0,-687.0
920.0,1.0,-41.0,-71.0,-2953.0,-715.0,242.0,-704.0
608.0,-31.0,-47.0,-29.0,-3391.0,-716.0,272.0,-650.0
102.0,-53.0,-54.0,-25.0,-3539.0,-657.0,211.0,-618.0
-300.0,-85.0,-99.0,-25.0,-3456.0,-607.0,75.0,-514.0
-637.0,-82.0,-70.0,16.0,-3172.0,-580.0,32.0,-406.0
-185.0,-28.0,-24.0,16.0,-3001.0,-517.0,-6.0,-671.0
56.0,122.0,-28.0,42.0,-2935.0,-407.0,-146.0,-1279.0
125.0,163.0,-10.0,81.0,-2925.0,-308.0,-287.0,-1339.0
122.0,140.0,-40.0,51.0,-2818.0,-244.0,-390.0,-548.0
-90.0,155.0,-76.0,18.0,-2664.0,-226.0,-371.0,393.0
-71.0,73.0,-40.0,67.0,-2549.0,-474.0,-198.0,955.0
-217.0,-55.0,-10.0,110.0,-2252.0,-591.0,-129.0,1468.0
-132.0,-202.0,64.0,132.0,-1849.0,-135.0,-327.0,1727.0
-286.0,-202.0,67.0,129.0,-1504.0,197.0,-635.0,1986.0
-323.0,-155.0,33.0,113.0,-1381.0,232.0,-817.0,2689.0
-205.0,-83.0,77.0,98.0,-1306.0,336.0,-855.0,3263.0
-69.0,9.0,65.0,80.0,-1249.0,404.0,-750.0,3393.0
-50.0,5.0,46.0,97.0,-812.0,597.0,-651.0,2819.0
-87.0,47.0,63.0,59.0,-507.0,790.0,-697.0,2184.0
-320.0,76.0,93.0,50.0,-395.0,902.0,-664.0,2418.0
-936.0,51.0,105.0,27.0,-351.0,1026.0,-363.0,2572.0
-807.0,55.0,71.0,-2.0,-333.0,831.0,376.0,2313.0
-232.0,30.0,46.0,10.0,-174.0,480.0,1137.0,2237.0
-419.0,0.0,36.0,-17.0,-177.0,95.0,1190.0,2054.0
62.0,3.0,67.0,-14.0,-13.0,-550.0,1060.0,1454.0
1897.0,-14.0,81.0,-47.0,-49.0,-857.0,767.0,817.0
2146.0,-28.0,73.0,-27.0,-16.0,-710.0,457.0,700.0
1962.0,-22.0,72.0,96.0,64.0,-511.0,315.0,70.0
1420.0,-26.0,81.0,150.0,105.0,-116.0,94.0,-594.0
452.0,-11.0,75.0,50.0,275.0,137.0,94.0,-928.0
163.0,3.0,38.0,37.0,215.0,28.0,112.0,-1859.0
-404.0,45.0,-229.0,26.0,104.0,54.0,271.0,-2375.0
-493.0,73.0,-512.0,-34.0,119.0,73.0,498.0,-2812.0
-765.0,30.0,-159.0,-62.0,44.0,-273.0,341.0,-3449.0
-654.0,52.0,150.0,-78.0,154.0,-482.0,106.0,-3927.0
-539.0,67.0,187.0,-53.0,497.0,-515.0,-117.0,-4000.0
-482.0,50.0,228.0,-82.0,874.0,-593.0,-261.0,-3995.0
-310.0,63.0,59.0,-75.0,1313.0,-657.0,-318.0,-4000.0
-327.0,81.0,24.0,-69.0,1645.0,-423.0,-394.0,-4000.0
-277.0,70.0,-42.0,-86.0,2035.0,295.0,-340.0,-4000.0
-311.0,44.0,-111.0,-105.0,2100.0,571.0,-353.0,-3397.0
-164.0,55.0,-103.0,-145.0,2100.0,563.0,-411.0,-2088.0
-162.0,38.0,-102.0,-178.0,2190.0,461.0,-184.0,-563.0
-102.0,54.0,-84.0,-165.0,2225.0,-275.0,3.0,676.0
-58.0,57.0,-171.0,-141.0,2254.0,-379.0,-175.0,1319.0
-33.0,58.0,-218.0,-100.0,2290.0,-33.0,-344.0,1264.0
-32.0,53.0,-183.0,-69.0,2374.0,70.0,-214.0,438.0
-20.0,-10.0,-212.0,-99.0,2296.0,404.0,-138.0,124.0
17.0,-35.0,-258.0,-103.0,2189.0,380.0,-397.0,286.0
-92.0,-122.0,-373.0,-122.0,2113.0,-247.0,-573.0,735.0
-136.0,-158.0,-393.0,-88.0,2113.0,-1038.0,-268.0,1372.0
-125.0,-149.0,-238.0,-61.0,2231.0,-875.0,445.0,2013.0
-34.0,-97.0,-187.0,-66.0,2255.0,-591.0,1288.0,2172.0
-1.0,-68.0,-106.0,-66.0,2243.0,-859.0,1072.0,1272.0
15.0,-49.0,24.0,-53.0,2124.0,-442.0,785.0,456.0
32.0,0.0,72.0,-30.0,2124.0,-750.0,791.0,123.0
9.0,-42.0,280.0,-28.0,2189.0,-923.0,445.0,112.0
-14.0,-26.0,573.0,50.0,2254.0,506.0,380.0,264.0
18.0,-23.0,654.0,132.0,2231.0,1222.0,130.0,564.0
101.0,8.0,573.0,95.0,2190.0,404.0,39.0,601.0
110.0,-2.0,361.0,-8.0,2289.0,-550.0,-14.0,612.0
99.0,-74.0,251.0,-76.0,2125.0,-385.0,-139.0,860.0
-8.0,-63.0,219.0,-156.0,1855.0,311.0,-298.0,890.0
-94.0,-39.0,243.0,-194.0,1574.0,758.0,-390.0,1134.0
-121.0,11.0,345.0,-198.0,1336.0,1056.0,152.0,1456.0
-76.0,56.0,318.0,-161.0,1148.0,938.0,749.0,1515.0
40.0,111.0,202.0,-78.0,920.0,220.0,681.0,1399.0
143.0,141.0,36.0,-72.0,554.0,-273.0,469.0,1077.0
168.0,99.0,40.0,-30.0,161.0,-129.0,510.0,686.0
171.0,60.0,8.0,37.0,-92.0,477.0,197.0,358.0
144.0,-72.0,-185.0,25.0,-360.0,877.0,58.0,184.0
34.0,-121.0,-265.0,12.0,-581.0,713.0,-28.0,159.0
-58.0,-99.0,-318.0,87.0,-588.0,651.0,-155.0,-8.0
-123.0,-151.0,-318.0,111.0,-744.0,467.0,-93.0,-327.0
-44.0,-182.0,-499.0,103.0,-965.0,254.0,-235.0,-163.0
-39.0,-232.0,-841.0,120.0,-1179.0,315.0,-383.0,596.0
-150.0,-155.0,-847.0,109.0,-1292.0,681.0,111.0,1334.0
-183.0,-163.0,-415.0,105.0,-1137.0,422.0,838.0,2770.0
-154.0,-156.0,71.0,120.0,-986.0,165.0,934.0,3523.0
-59.0,-53.0,419.0,431.0,-792.0,896.0,707.0,2612.0
-47.0,-79.0,598.0,882.0,-600.0,1482.0,242.0,1728.0
-51.0,-131.0,517.0,568.0,-395.0,2112.0,207.0,796.0
-41.0,-244.0,272.0,-191.0,-360.0,1913.0,359.0,-93.0
-78.0,-300.0,-14.0,-546.0,-518.0,823.0,1202.0,-1188.0
-139.0,-303.0,-131.0,-715.0,-376.0,-228.0,2048.0,-1856.0
-125.0,-220.0,-200.0,-636.0,-295.0,-1446.0,1602.0,-1829.0
-5.0,-49.0,-183.0,-580.0,-263.0,-2732.0,942.0,-2128.0
88.0,63.0,-98.0,-487.0,-404.0,-2138.0,-464.0,-2022.0
151.0,149.0,-112.0,-243.0,-441.0,-511.0,-1368.0,-1339.0
157.0,168.0,-107.0,-105.0,-631.0,-419.0,-707.0,-1279.0
146.0,145.0,-63.0,49.0,-1202.0,-416.0,481.0,-1078.0
95.0,87.0,-133.0,101.0,-1179.0,-662.0,919.0,-866.0
27.0,53.0,-224.0,-4.0,-730.0,-1050.0,818.0,-1430.0
40.0,31.0,-116.0,-41.0,-621.0,-1075.0,881.0,-1148.0
21.0,28.0,-39.0,91.0,-1049.0,-1103.0,496.0,-744.0
-4.0,68.0,38.0,110.0,-770.0,-940.0,282.0,-480.0
23.0,108.0,36.0,131.0,-56.0,-881.0,-162.0,-138.0
-4.0,135.0,-51.0,97.0,660.0,-781.0,-845.0,-276.0
-46.0,158.0,-57.0,77.0,586.0,-745.0,-1185.0,-211.0
-3.0,172.0,-56.0,156.0,-285.0,-621.0,-1388.0,-44.0
-23.0,140.0,49.0,205.0,-212.0,-541.0,-1435.0,-39.0
-1.0,108.0,178.0,258.0,-150.0,-513.0,-1332.0,-345.0
3.0,85.0,163.0,170.0,20.0,-459.0,-1113.0,-614.0
-4.0,151.0,-92.0,99.0,-149.0,-323.0,-912.0,-529.0
20.0,213.0,-580.0,48.0,-267.0,-239.0,-642.0,-247.0
8.0,194.0,-548.0,12.0,60.0,-154.0,-448.0,314.0
24.0,195.0,104.0,81.0,-50.0,50.0,-310.0,795.0
17.0,200.0,385.0,95.0,91.0,154.0,-533.0,765.0
18.0,200.0,512.0,0.0,-105.0,326.0,-1120.0,597.0
25.0,189.0,466.0,-63.0,-240.0,462.0,-1397.0,922.0
-9.0,114.0,280.0,-15.0,-517.0,667.0,-1199.0,1260.0
-4.0,38.0,107.0,-46.0,-599.0,860.0,-898.0,1411.0
20.0,63.0,-64.0,74.0,-196.0,940.0,-794.0,1586.0
38.0,95.0,-36.0,308.0,-137.0,1072.0,-876.0,1263.0
30.0,60.0,-111.0,305.0,-247.0,926.0,-972.0,242.0
-18.0,-21.0,-129.0,-53.0,-508.0,642.0,-927.0,-589.0
-49.0,-104.0,-153.0,-527.0,-494.0,693.0,-680.0,-724.0
9.0,-96.0,-152.0,-652.0,-202.0,1003.0,-434.0,-1143.0
-25.0,-70.0,-183.0,-637.0,-7.0,1163.0,-1136.0,-2324.0
-39.0,-91.0,-103.0,-572.0,-46.0,1136.0,-1583.0,-3191.0
-31.0,-59.0,-8.0,-393.0,-449.0,1188.0,-1718.0,-2735.0
-119.0,28.0,-132.0,-184.0,-1514.0,1026.0,-1918.0,-1594.0
-104.0,70.0,-146.0,-198.0,-1768.0,742.0,-1652.0,-346.0
-97.0,-7.0,95.0,-320.0,-1174.0,551.0,-2186.0,200.0
-72.0,-71.0,200.0,-25.0,-1059.0,406.0,-2740.0,224.0
-13.0,-80.0,160.0,325.0,-1137.0,404.0,-3041.0,786.0
8.0,-17.0,102.0,258.0,-1398.0,537.0,-1897.0,677.0
27.0,15.0,-92.0,11.0,-1129.0,603.0,-394.0,162.0
-39.0,9.0,-109.0,75.0,-714.0,531.0,-167.0,-541.0
-359.0,14.0,50.0,94.0,-299.0,400.0,111.0,-1826.0
-685.0,-68.0,241.0,77.0,60.0,225.0,-458.0,-3071.0
-476.0,-84.0,268.0,116.0,157.0,39.0,-482.0,-3824.0
-101.0,22.0,110.0,74.0,145.0,-107.0,99.0,-3634.0
314.0,-78.0,-80.0,54.0,224.0,-149.0,532.0,-3588.0
603.0,-179.0,-389.0,22.0,270.0,-138.0,1078.0,-3327.0
603.0,-155.0,-963.0,41.0,166.0,-108.0,1640.0,-3191.0
462.0,-216.0,-963.0,51.0,80.0,19.0,2619.0,-2797.0
303.0,-118.0,-179.0,134.0,-40.0,283.0,3665.0,-1526.0
204.0,-97.0,190.0,167.0,128.0,571.0,4000.0,-1339.0
1.0,-149.0,27.0,181.0,-120.0,823.0,4000.0,-614.0
-151.0,-239.0,-193.0,116.0,-273.0,1018.0,4000.0,955.0
-343.0,-286.0,301.0,52.0,-93.0,1163.0,4000.0,2290.0
-392.0,-179.0,719.0,48.0,-101.0,1395.0,4000.0,2835.0
-241.0,-127.0,512.0,22.0,282.0,1518.0,4000.0,3796.0
-174.0,-39.0,410.0,51.0,203.0,1287.0,4000.0,4000.0
-128.0,64.0,299.0,30.0,47.0,766.0,4000.0,4000.0
2.0,95.0,421.0,26.0,157.0,172.0,4000.0,3741.0
71.0,33.0,480.0,26.0,114.0,-375.0,4000.0,3600.0
97.0,-10.0,369.0,157.0,496.0,-771.0,4000.0,4000.0
108.0,-9.0,52.0,280.0,758.0,-945.0,3708.0,4000.0
8.0,37.0,-190.0,465.0,635.0,-1106.0,2890.0,3527.0
-16.0,138.0,-112.0,699.0,275.0,-1112.0,2061.0,2575.0
-17.0,95.0,-26.0,402.0,-7.0,-1010.0,1605.0,1977.0
-12.0,-6.0,-61.0,-14.0,-88.0,-973.0,1202.0,1912.0
43.0,6.0,-411.0,-233.0,253.0,-932.0,1072.0,1573.0
56.0,199.0,-532.0,-393.0,660.0,-976.0,1280.0,788.0
50.0,313.0,-379.0,-293.0,967.0,-1070.0,1010.0,-753.0
41.0,294.0,-335.0,-291.0,1914.0,-1311.0,-680.0,-883.0
4.0,227.0,-214.0,-287.0,2578.0,-1831.0,-3962.0,-1279.0
2.0,95.0,-102.0,-146.0,2386.0,-2156.0,-4000.0,-1839.0
6.0,109.0,15.0,-104.0,1325.0,-1753.0,-4000.0,-1319.0
-18.0,51.0,60.0,-198.0,-170.0,-945.0,-4000.0,-555.0
-1.0,103.0,82.0,-211.0,-1398.0,-337.0,-4000.0,-136.0
-93.0,152.0,175.0,-195.0,-2289.0,254.0,-4000.0,-744.0
-140.0,-7.0,223.0,-285.0,-1653.0,1010.0,-4000.0,-1998.0
-95.0,28.0,241.0,-277.0,334.0,1604.0,-4000.0,-2865.0
-77.0,150.0,183.0,-289.0,1269.0,1907.0,-4000.0,-3318.0
-110.0,290.0,179.0,-238.0,701.0,1966.0,-4000.0,-3349.0
-256.0,305.0,266.0,-191.0,44.0,1824.0,-4000.0,-1324.0
-305.0,258.0,271.0,-87.0,272.0,1628.0,-4000.0,-248.0
-129.0,130.0,158.0,5.0,815.0,1315.0,-4000.0,-370.0
14.0,3.0,82.0,-27.0,521.0,967.0,-3326.0,859.0
-33.0,-53.0,-10.0,93.0,603.0,542.0,-2495.0,1914.0
27.0,-72.0,-88.0,13.0,1525.0,-148.0,-1914.0,2624.0
212.0,-86.0,-87.0,35.0,2451.0,-541.0,-1071.0,2835.0
321.0,-125.0,-69.0,111.0,2748.0,-650.0,-713.0,2901.0
310.0,-83.0,-138.0,15.0,1824.0,-861.0,-750.0,2901.0
186.0,-118.0,-120.0,40.0,733.0,-912.0,-876.0,2770.0
196.0,-69.0,-41.0,28.0,237.0,-875.0,-862.0,2563.0
52.0,-64.0,-44.0,31.0,-65.0,-743.0,-897.0,2248.0
-245.0,-83.0,15.0,9.0,-205.0,-472.0,-797.0,1989.0
-171.0,-79.0,50.0,35.0,-486.0,-174.0,-643.0,1533.0
30.0,-94.0,93.0,106.0,-595.0,15.0,-407.0,1272.0
147.0,-67.0,42.0,104.0,-380.0,123.0,-262.0,1000.0
277.0,-89.0,-24.0,52.0,-350.0,194.0,-280.0,686.0
260.0,-96.0,-10.0,15.0,-277.0,105.0,138.0,203.0
243.0,-71.0,20.0,-6.0,-54.0,-51.0,767.0,-175.0
198.0,-54.0,119.0,0.0,36.0,-249.0,1670.0,-345.0
-76.0,-42.0,92.0,0.0,-148.0,-377.0,2696.0,-603.0
-979.0,-16.0,107.0,-20.0,-441.0,-515.0,3885.0,-818.0
-1430.0,-21.0,105.0,5.0,-511.0,-676.0,4000.0,-1013.0
-357.0,-33.0,107.0,-32.0,-160.0,-810.0,4000.0,-1235.0
359.0,-53.0,180.0,-20.0,-205.0,-900.0,4000.0,-1461.0
790.0,-52.0,136.0,-62.0,-126.0,-926.0,4000.0,-1497.0
1116.0,-5.0,115.0,-66.0,55.0,-867.0,4000.0,-1449.0
888.0,-4.0,31.0,-65.0,-31.0,-750.0,3542.0,-1315.0
521.0,26.0,-5.0,-64.0,-262.0,-598.0,2814.0,-1043.0
108.0,-15.0,-8.0,-36.0,-724.0,-434.0,2244.0,-753.0
-17.0,-40.0,-20.0,-44.0,-356.0,-194.0,1723.0,-540.0
-99.0,-50.0,34.0,13.0,-107.0,-12.0,1194.0,-540.0
-129.0,-84.0,-8.0,-39.0,15.0,90.0,667.0,-818.0
-212.0,-92.0,-44.0,-34.0,505.0,159.0,65.0,-1018.0
-228.0,-97.0,-29.0,-19.0,393.0,83.0,-499.0,-1078.0
-209.0,-85.0,-38.0,-50.0,328.0,30.0,-1035.0,-1105.0
-165.0,-94.0,-64.0,-49.0,162.0,-3.0,-1527.0,-996.0
-114.0,-129.0,-67.0,-56.0,145.0,-56.0,-1767.0,-861.0
-123.0,-141.0,-68.0,-30.0,425.0,-158.0,-1690.0,-844.0
-33.0,-82.0,-41.0,-13.0,351.0,-275.0,-1748.0,-940.0
-104.0,-85.0,-34.0,-20.0,281.0,-352.0,-1914.0,-1013.0
-141.0,14.0,-60.0,2.0,287.0,-449.0,-2115.0,-931.0
-141.0,363.0,-47.0,-1.0,228.0,-519.0,-2367.0,-713.0
-108.0,485.0,23.0,19.0,106.0,-550.0,-2340.0,-431.0
-49.0,335.0,31.0,81.0,-125.0,-636.0,-2388.0,-152.0
-53.0,200.0,-26.0,87.0,-425.0,-680.0,-2573.0,-113.0
-58.0,98.0,-17.0,64.0,-476.0,-685.0,-2790.0,-248.0
-88.0,176.0,80.0,69.0,-593.0,-657.0,-3126.0,-293.0
-88.0,128.0,144.0,71.0,-531.0,-630.0,-3366.0,-32.0
-119.0,34.0,-36.0,64.0,-242.0,-574.0,-3766.0,255.0
-96.0,140.0,-271.0,74.0,-107.0,-468.0,-4000.0,61.0
-89.0,396.0,-334.0,85.0,-52.0,-305.0,-4000.0,-34.0
-46.0,448.0,-255.0,69.0,-142.0,-2.0,-3520.0,61.0
-33.0,58.0,-205.0,81.0,-228.0,404.0,934.0,-218.0
-69.0,-175.0,-120.0,54.0,-263.0,866.0,4000.0,-234.0
-79.0,-318.0,-23.0,30.0,-144.0,1279.0,4000.0,-169.0
-75.0,-497.0,7.0,-6.0,33.0,1601.0,4000.0,-203.0
-25.0,-590.0,44.0,-9.0,253.0,1691.0,4000.0,-62.0
-6.0,-627.0,114.0,38.0,459.0,1547.0,4000.0,-42.0
9.0,-556.0,96.0,9.0,725.0,1258.0,4000.0,-82.0
-4.0,-479.0,-4.0,2.0,1124.0,837.0,4000.0,-214.0
16.0,-476.0,-36.0,-17.0,1409.0,542.0,4000.0,-332.0
24.0,-627.0,8.0,-49.0,1398.0,380.0,4000.0,-400.0
30.0,-373.0,11.0,-10.0,1287.0,380.0,4000.0,-419.0
30.0,-46.0,189.0,25.0,1352.0,557.0,3477.0,-284.0
17.0,92.0,425.0,3.0,1118.0,791.0,1711.0,-108.0
23.0,276.0,163.0,11.0,731.0,1083.0,-317.0,-218.0
17.0,286.0,-190.0,19.0,448.0,1395.0,-2506.0,-46.0
16.0,369.0,-320.0,13.0,480.0,1669.0,-4000.0,67.0
45.0,457.0,-385.0,8.0,379.0,1929.0,-4000.0,-273.0
104.0,725.0,-348.0,-15.0,-24.0,1994.0,-4000.0,-158.0
82.0,868.0,-385.0,-44.0,-168.0,1592.0,-4000.0,70.0
52.0,900.0,-368.0,-44.0,-576.0,866.0,-4000.0,355.0
14.0,856.0,-338.0,-69.0,-847.0,299.0,-4000.0,600.0
9.0,473.0,-328.0,-62.0,-599.0,-161.0,-4000.0,719.0
7.0,110.0,-135.0,-53.0,-295.0,-555.0,-4000.0,805.0
-21.0,-150.0,36.0,-100.0,-95.0,-773.0,-4000.0,882.0
-24.0,-403.0,1.0,-72.0,63.0,-940.0,-4000.0,1056.0
-27.0,-496.0,-147.0,-69.0,180.0,-1186.0,-4000.0,1057.0
-6.0,-414.0,77.0,-81.0,137.0,-1290.0,-3472.0,1026.0
-45.0,-532.0,382.0,-101.0,94.0,-1265.0,-2951.0,922.0
-47.0,-460.0,316.0,-113.0,267.0,-1265.0,-2405.0,731.0
-33.0,-190.0,150.0,-71.0,509.0,-1115.0,-1728.0,474.0
-20.0,16.0,115.0,-84.0,477.0,-911.0,-882.0,230.0
-17.0,78.0,196.0,-53.0,324.0,-668.0,-204.0,409.0
-79.0,-43.0,222.0,-44.0,668.0,-504.0,282.0,593.0
-81.0,-63.0,97.0,-76.0,933.0,-383.0,642.0,1020.0
-24.0,16.0,-70.0,-59.0,480.0,-297.0,1084.0,1660.0
1.0,21.0,-67.0,-53.0,444.0,-333.0,1483.0,1598.0
-7.0,-362.0,-88.0,-53.0,809.0,-280.0,1670.0,1334.0
27.0,-195.0,-218.0,-28.0,1204.0,-217.0,1801.0,850.0
12.0,343.0,-180.0,12.0,1629.0,-120.0,1984.0,564.0
-13.0,447.0,168.0,65.0,1148.0,-27.0,2166.0,726.0
-3.0,449.0,385.0,69.0,748.0,21.0,2306.0,615.0
-20.0,473.0,368.0,91.0,882.0,76.0,2297.0,751.0
9.0,973.0,246.0,83.0,621.0,69.0,2309.0,798.0
98.0,1057.0,18.0,19.0,314.0,115.0,2361.0,367.0
150.0,737.0,-143.0,-21.0,154.0,230.0,2321.0,88.0
114.0,764.0,-194.0,-116.0,4.0,329.0,2321.0,-266.0
60.0,681.0,-112.0,-214.0,-411.0,415.0,2309.0,-599.0
20.0,794.0,-68.0,-220.0,-1198.0,411.0,2232.0,-883.0
-23.0,702.0,98.0,-143.0,-2028.0,361.0,2101.0,-1169.0
1.0,-179.0,280.0,-96.0,-2645.0,265.0,1931.0,-1316.0
28.0,-952.0,241.0,-72.0,-2924.0,141.0,1800.0,-1469.0
39.0,-1415.0,-42.0,3.0,-3018.0,70.0,1628.0,-1429.0
86.0,-1682.0,-161.0,59.0,-3054.0,16.0,1418.0,-1339.0
32.0,-1310.0,-163.0,76.0,-2776.0,-7.0,1214.0,-1274.0
-3.0,-1062.0,-209.0,80.0,-2368.0,-7.0,881.0,-1253.0
-13.0,-700.0,-155.0,75.0,-2289.0,-16.0,380.0,-1196.0
-81.0,-181.0,-139.0,63.0,-2289.0,40.0,181.0,-999.0
-39.0,78.0,-60.0,63.0,-2057.0,176.0,441.0,-748.0
39.0,200.0,-73.0,65.0,-1833.0,272.0,707.0,-553.0
33.0,135.0,-70.0,45.0,-2010.0,341.0,816.0,-496.0
23.0,136.0,-43.0,19.0,-2250.0,431.0,755.0,-492.0
50.0,-310.0,0.0,4.0,-2386.0,411.0,413.0,-427.0
72.0,-575.0,63.0,-16.0,-2409.0,293.0,155.0,-313.0
52.0,-310.0,50.0,-16.0,-2550.0,233.0,110.0,-257.0
-3.0,-492.0,39.0,-1.0,-2741.0,248.0,72.0,-185.0
-79.0,-393.0,28.0,-20.0,-2147.0,207.0,77.0,-118.0
-159.0,-72.0,50.0,-13.0,-942.0,160.0,33.0,-54.0
-258.0,-76.0,45.0,-17.0,64.0,130.0,-1.0,-26.0
-341.0,13.0,6.0,-60.0,242.0,79.0,-77.0,30.0
-245.0,313.0,-1.0,-56.0,420.0,41.0,-56.0,62.0
-38.0,512.0,9.0,-39.0,896.0,2.0,37.0,-16.0
47.0,577.0,24.0,-30.0,758.0,-58.0,-19.0,-91.0
102.0,603.0,26.0,-62.0,692.0,-102.0,-98.0,-280.0
139.0,489.0,31.0,-40.0,778.0,-98.0,-134.0,-415.0
166.0,451.0,33.0,-14.0,541.0,-127.0,-167.0,-529.0
194.0,359.0,37.0,-50.0,375.0,-122.0,-267.0,-524.0
163.0,182.0,45.0,-54.0,367.0,-89.0,-284.0,-457.0
54.0,-29.0,51.0,-26.0,342.0,-75.0,-249.0,-557.0
-144.0,-204.0,85.0,-35.0,253.0,-48.0,-298.0,-317.0
-272.0,-247.0,113.0,-41.0,230.0,-56.0,-318.0,252.0
-150.0,-155.0,142.0,-36.0,84.0,-41.0,-349.0,197.0
-17.0,-68.0,166.0,7.0,-245.0,6.0,-418.0,176.0
-58.0,-134.0,111.0,-9.0,-380.0,31.0,-424.0,434.0
-98.0,-71.0,1.0,-29.0,-446.0,67.0,-436.0,426.0
-208.0,-42.0,4.0,-7.0,-595.0,91.0,-485.0,456.0
-327.0,-104.0,24.0,2.0,-644.0,70.0,-489.0,348.0
-250.0,-133.0,-2.0,13.0,-679.0,43.0,-501.0,695.0
-43.0,-50.0,40.0,0.0,-673.0,69.0,-515.0,874.0
25.0,40.0,32.0,2.0,-596.0,104.0,-424.0,497.0
14.0,27.0,41.0,15.0,-517.0,145.0,-298.0,651.0
14.0,40.0,65.0,44.0,-402.0,189.0,-228.0,1248.0
14.0,93.0,35.0,72.0,-360.0,155.0,-261.0,1319.0
37.0,125.0,48.0,61.0,-333.0,119.0,-298.0,1334.0
72.0,128.0,-23.0,22.0,-291.0,110.0,-340.0,1286.0
116.0,144.0,-187.0,-2.0,-195.0,115.0,-353.0,988.0
99.0,127.0,-150.0,16.0,-28.0,78.0,-340.0,758.0
86.0,129.0,-68.0,0.0,104.0,19.0,-359.0,267.0
72.0,124.0,-36.0,-15.0,217.0,-49.0,-513.0,-5.0
23.0,55.0,-33.0,-21.0,141.0,-127.0,-505.0,-259.0
-5.0,40.0,-76.0,-35.0,-18.0,-149.0,-338.0,-301.0
28.0,12.0,-86.0,-24.0,-87.0,-172.0,-241.0,-248.0
45.0,-40.0,-107.0,-50.0,4.0,-175.0,-4.0,-251.0
12.0,-32.0,-109.0,-41.0,302.0,-237.0,68.0,-223.0
7.0,-37.0,-106.0,-37.0,544.0,-307.0,110.0,-334.0
17.0,-11.0,-103.0,-52.0,811.0,-394.0,-49.0,-443.0
21.0,30.0,-51.0,-74.0,1213.0,-493.0,-118.0,-528.0
11.0,20.0,10.0,-107.0,1645.0,-548.0,53.0,-482.0
36.0,12.0,24.0,-86.0,1992.0,-532.0,28.0,-553.0
-15.0,14.0,5.0,-61.0,2254.0,-383.0,66.0,-508.0
-31.0,28.0,-72.0,-67.0,2513.0,-266.0,-122.0,-514.0
-51.0,17.0,-161.0,-61.0,2443.0,-75.0,-235.0,-496.0
-73.0,49.0,-206.0,13.0,2317.0,29.0,-80.0,-431.0
-39.0,31.0,-160.0,24.0,2189.0,-68.0,-24.0,-427.0
-109.0,-55.0,-102.0,15.0,2048.0,-200.0,-43.0,-401.0
-101.0,-82.0,-132.0,40.0,1930.0,-261.0,85.0,-467.0
-69.0,-75.0,-129.0,51.0,1666.0,-137.0,303.0,-427.0
-69.0,-49.0,-120.0,64.0,1405.0,-11.0,498.0,-431.0
-53.0,-104.0,-97.0,40.0,1207.0,30.0,655.0,-410.0
-65.0,-117.0,-37.0,45.0,998.0,-2.0,346.0,-259.0
-47.0,-77.0,-40.0,23.0,823.0,-35.0,-4.0,-97.0
-33.0,-75.0,2.0,14.0,751.0,-37.0,141.0,123.0
4.0,3.0,25.0,-4.0,737.0,-4.0,356.0,473.0
52.0,46.0,32.0,-17.0,719.0,51.0,337.0,660.0
