-117.0,-314.0,-358.0,-59.0,1352.0,-187.0,-1332.0,308.0
-93.0,-310.0,-585.0,-48.0,627.0,88.0,-1266.0,-116.0
-109.0,-260.0,-752.0,-111.0,-78.0,811.0,-1311.0,-651.0
-53.0,-132.0,-886.0,-124.0,-443.0,1443.0,-1462.0,-391.0
-6.0,-20.0,-937.0,-61.0,-812.0,1824.0,-1636.0,-362.0
5.0,45.0,-560.0,-54.0,-856.0,498.0,-1690.0,-492.0
22.0,34.0,-67.0,-73.0,-1182.0,-3061.0,-1848.0,-610.0
-10.0,48.0,426.0,-103.0,-1619.0,-4000.0,-1851.0,-462.0
-54.0,8.0,760.0,-115.0,-2312.0,-3048.0,-1527.0,-380.0
-125.0,-32.0,683.0,-137.0,-2922.0,-2284.0,-1071.0,-508.0
-93.0,-26.0,564.0,-178.0,-3315.0,-1461.0,-643.0,-753.0
8.0,-52.0,650.0,-161.0,-3586.0,-448.0,-436.0,-1129.0
-66.0,-130.0,891.0,-143.0,-3663.0,72.0,-108.0,-679.0
-169.0,-141.0,1153.0,-147.0,-3573.0,65.0,-123.0,410.0
-181.0,-48.0,1192.0,-120.0,-3456.0,-205.0,-489.0,1697.0
-42.0,53.0,1028.0,-74.0,-3443.0,-657.0,-449.0,1392.0
51.0,95.0,577.0,-49.0,-3327.0,-1526.0,-342.0,503.0
25.0,118.0,-2.0,-25.0,-3379.0,-2803.0,-141.0,808.0
60.0,74.0,-247.0,-9.0,-3380.0,-3651.0,53.0,719.0
68.0,46.0,-251.0,11.0,-3510.0,-2803.0,21.0,404.0
80.0,30.0,184.0,28.0,-3391.0,-1570.0,254.0,438.0
62.0,0.0,683.0,-2.0,-3474.0,-535.0,429.0,591.0
-120.0,60.0,400.0,-74.0,-3604.0,-10.0,398.0,727.0
-404.0,83.0,8.0,-152.0,-3655.0,406.0,410.0,425.0
-317.0,164.0,-115.0,-121.0,-3663.0,1398.0,464.0,261.0
-5.0,211.0,-190.0,-32.0,-3339.0,1657.0,489.0,775.0
249.0,225.0,-358.0,23.0,-3079.0,1473.0,-179.0,890.0
538.0,371.0,-963.0,69.0,-2870.0,998.0,-550.0,731.0
654.0,469.0,-1778.0,122.0,-3054.0,576.0,-707.0,499.0
627.0,469.0,-1846.0,197.0,-3456.0,660.0,-672.0,442.0
382.0,396.0,-1192.0,198.0,-3510.0,628.0,-260.0,507.0
154.0,227.0,-651.0,167.0,-3250.0,678.0,5.0,507.0
-40.0,-58.0,-637.0,125.0,-3041.0,641.0,366.0,645.0
-234.0,-303.0,-1294.0,75.0,-2611.0,-352.0,673.0,811.0
-258.0,-373.0,-2318.0,85.0,-2537.0,-802.0,1324.0,1057.0
-174.0,-253.0,-2020.0,113.0,-2513.0,297.0,1149.0,1177.0
-31.0,-48.0,-34.0,138.0,-2482.0,1313.0,571.0,1118.0
36.0,-20.0,1544.0,134.0,-2860.0,1604.0,449.0,938.0
46.0,-43.0,2924.0,149.0,-3148.0,1098.0,341.0,1085.0
-24.0,-129.0,3676.0,116.0,-3456.0,534.0,628.0,1122.0
-35.0,-155.0,3434.0,-13.0,-3573.0,692.0,386.0,1012.0
-61.0,-227.0,2455.0,-112.0,-3817.0,713.0,352.0,914.0
-83.0,-239.0,1509.0,-149.0,-3988.0,156.0,693.0,812.0
-13.0,-81.0,1127.0,-122.0,-4000.0,-510.0,528.0,686.0
-25.0,-5.0,498.0,-59.0,-4000.0,-613.0,-178.0,326.0
-150.0,37.0,112.0,-65.0,-4000.0,-988.0,-546.0,129.0
-476.0,3.0,-531.0,-18.0,-4000.0,-1880.0,220.0,56.0
-763.0,43.0,-1166.0,90.0,-4000.0,-2433.0,195.0,50.0
-610.0,85.0,-1484.0,156.0,-4000.0,-3103.0,235.0,38.0
-453.0,68.0,-1338.0,134.0,-4000.0,-3336.0,897.0,-7.0
-366.0,105.0,-696.0,120.0,-4000.0,-2528.0,809.0,-107.0
104.0,152.0,-122.0,158.0,-4000.0,-1951.0,359.0,-27.0
537.0,152.0,205.0,115.0,-4000.0,-1715.0,746.0,247.0
798.0,93.0,126.0,-40.0,-4000.0,-875.0,1189.0,451.0
935.0,28.0,-155.0,-154.0,-3539.0,-796.0,980.0,450.0
920.0,116.0,-350.0,-129.0,-3001.0,-763.0,1580.0,196.0
825.0,162.0,-563.0,-124.0,-2512.0,-901.0,1539.0,-35.0
660.0,245.0,-645.0,-149.0,-1945.0,-1461.0,779.0,-229.0
495.0,374.0,-281.0,-101.0,-1491.0,-1054.0,563.0,-217.0
269.0,347.0,-204.0,-99.0,-1114.0,-382.0,637.0,-51.0
88.0,276.0,-737.0,-107.0,-791.0,136.0,522.0,-23.0
-142.0,109.0,-702.0,-89.0,-364.0,439.0,211.0,-127.0
-318.0,-159.0,-268.0,-104.0,-139.0,1142.0,6.0,-187.0
-411.0,-267.0,-310.0,-91.0,157.0,1417.0,-485.0,-156.0
-461.0,-273.0,-225.0,-18.0,496.0,1352.0,-703.0,-189.0
-331.0,-174.0,65.0,31.0,570.0,1340.0,-1043.0,-227.0
-164.0,110.0,121.0,-5.0,831.0,1417.0,-1262.0,-254.0
-101.0,115.0,-165.0,-44.0,859.0,1734.0,-1076.0,-350.0
-166.0,-43.0,-21.0,-137.0,929.0,1824.0,-745.0,-305.0
-186.0,-164.0,150.0,-175.0,987.0,2112.0,-363.0,-305.0
-128.0,-212.0,-499.0,-101.0,1026.0,2485.0,386.0,-357.0
-83.0,-93.0,-1797.0,-49.0,1213.0,2680.0,1180.0,-229.0
-183.0,-105.0,-2216.0,44.0,1222.0,2125.0,954.0,-193.0
-280.0,-154.0,-1192.0,194.0,1263.0,1531.0,1183.0,-232.0
-348.0,-181.0,-531.0,238.0,1188.0,1454.0,1280.0,-245.0
-476.0,-253.0,215.0,161.0,1128.0,1344.0,1115.0,-248.0
-435.0,-205.0,1041.0,116.0,1091.0,1059.0,1129.0,-240.0
-248.0,-139.0,1794.0,54.0,1163.0,1012.0,1072.0,-111.0
-39.0,-85.0,1965.0,43.0,1118.0,608.0,1141.0,159.0
92.0,47.0,1574.0,72.0,1069.0,-423.0,974.0,239.0
318.0,151.0,1119.0,85.0,1032.0,-743.0,921.0,41.0
358.0,132.0,441.0,68.0,953.0,-304.0,832.0,-130.0
256.0,17.0,107.0,66.0,758.0,358.0,816.0,-317.0
183.0,-29.0,-645.0,110.0,351.0,860.0,702.0,-553.0
12.0,-80.0,-643.0,138.0,108.0,1051.0,603.0,-685.0
-171.0,-50.0,-1166.0,134.0,-217.0,758.0,506.0,-724.0
-285.0,70.0,-3730.0,2.0,-537.0,480.0,349.0,-738.0
-271.0,36.0,-3539.0,-72.0,-877.0,406.0,170.0,-730.0
-320.0,-41.0,-576.0,-106.0,-1072.0,220.0,-146.0,-464.0
-555.0,-181.0,1283.0,-152.0,-1072.0,168.0,-399.0,-345.0
-610.0,-258.0,3304.0,-149.0,-1137.0,160.0,-643.0,-390.0
-20.0,-109.0,3782.0,-182.0,-1369.0,216.0,-855.0,-269.0
281.0,26.0,3238.0,-178.0,-1638.0,207.0,-1071.0,-191.0
200.0,106.0,2548.0,-104.0,-1717.0,220.0,-1243.0,-15.0
-92.0,157.0,828.0,97.0,-1638.0,220.0,-1490.0,25.0
-93.0,124.0,-318.0,453.0,-1446.0,172.0,-1716.0,26.0
304.0,3.0,-214.0,406.0,-1250.0,232.0,-2117.0,108.0
281.0,-210.0,582.0,56.0,-1059.0,160.0,-2577.0,99.0
651.0,-261.0,-133.0,-14.0,-1077.0,94.0,-2481.0,58.0
847.0,-101.0,-759.0,-115.0,-1109.0,26.0,-2388.0,137.0
762.0,86.0,-977.0,-121.0,-1044.0,19.0,-2340.0,247.0
457.0,75.0,-1284.0,-213.0,-1114.0,91.0,-2080.0,434.0
157.0,31.0,-375.0,-328.0,-1077.0,78.0,-1881.0,670.0
71.0,48.0,92.0,-308.0,-941.0,-131.0,-1559.0,784.0
-132.0,70.0,-711.0,-409.0,-763.0,-327.0,-1201.0,1012.0
-89.0,120.0,-1198.0,-387.0,-543.0,-338.0,-920.0,1004.0
-101.0,110.0,-576.0,-293.0,-421.0,-263.0,-556.0,597.0
-82.0,114.0,253.0,-75.0,-364.0,-43.0,-310.0,-21.0
-102.0,75.0,899.0,-19.0,-177.0,127.0,-137.0,-325.0
-111.0,87.0,701.0,-147.0,108.0,213.0,43.0,-447.0
-94.0,103.0,225.0,-241.0,432.0,271.0,238.0,-1114.0
-176.0,103.0,89.0,-279.0,602.0,24.0,368.0,-2100.0
-203.0,135.0,-84.0,-316.0,737.0,-456.0,604.0,-2440.0
-207.0,135.0,-566.0,-323.0,713.0,-282.0,838.0,-2069.0
-195.0,124.0,-1700.0,-193.0,680.0,107.0,838.0,-1681.0
-182.0,86.0,-1992.0,-53.0,745.0,13.0,954.0,-675.0
-147.0,77.0,-906.0,31.0,471.0,-269.0,1007.0,-82.0
-123.0,46.0,82.0,56.0,204.0,-394.0,930.0,44.0
-76.0,37.0,781.0,139.0,-34.0,-320.0,954.0,-207.0
-63.0,8.0,751.0,261.0,-151.0,-326.0,897.0,-673.0
-43.0,-38.0,284.0,320.0,-201.0,-334.0,832.0,1382.0
-21.0,-53.0,42.0,260.0,13.0,-371.0,788.0,2183.0
-25.0,-20.0,-274.0,231.0,195.0,-320.0,655.0,1411.0
12.0,50.0,-67.0,226.0,55.0,-338.0,571.0,1793.0
-29.0,74.0,138.0,172.0,205.0,-342.0,542.0,1281.0
-296.0,121.0,123.0,197.0,154.0,-373.0,571.0,1521.0
-684.0,80.0,31.0,156.0,61.0,-269.0,673.0,1334.0
-412.0,60.0,-1016.0,81.0,140.0,-20.0,734.0,1395.0
-33.0,85.0,-2448.0,19.0,432.0,62.0,652.0,2054.0
-143.0,5.0,-1947.0,-4.0,627.0,214.0,726.0,1793.0
187.0,-83.0,-119.0,-10.0,497.0,174.0,1084.0,1650.0
553.0,-75.0,1257.0,-19.0,277.0,29.0,1280.0,1221.0
569.0,-56.0,1890.0,-5.0,245.0,-14.0,1378.0,825.0
465.0,-121.0,1574.0,-54.0,887.0,67.0,1249.0,499.0
49.0,-42.0,1444.0,-46.0,1091.0,-27.0,1072.0,49.0
-232.0,-37.0,976.0,-51.0,1136.0,33.0,889.0,-496.0
-149.0,-105.0,349.0,-20.0,1333.0,249.0,720.0,-543.0
-191.0,-79.0,123.0,341.0,1340.0,180.0,726.0,-488.0
-108.0,-52.0,125.0,509.0,1344.0,300.0,529.0,-658.0
69.0,7.0,394.0,144.0,887.0,284.0,280.0,-856.0
298.0,2.0,304.0,-137.0,766.0,132.0,-175.0,-801.0
487.0,22.0,-110.0,-323.0,1018.0,64.0,-615.0,-708.0
150.0,43.0,-44.0,-411.0,1207.0,-200.0,-836.0,-696.0
-99.0,55.0,270.0,-318.0,1340.0,-428.0,-1030.0,-687.0
-14.0,45.0,-14.0,-273.0,1329.0,-349.0,-1173.0,-602.0
-66.0,36.0,-54.0,-226.0,1124.0,24.0,-1266.0,-341.0
-352.0,54.0,-90.0,-198.0,766.0,110.0,-1303.0,-207.0
-457.0,33.0,-147.0,-54.0,888.0,-136.0,-1184.0,-196.0
-284.0,11.0,-188.0,29.0,615.0,-474.0,-1122.0,-341.0
187.0,40.0,-350.0,23.0,602.0,-710.0,-1119.0,-213.0
433.0,69.0,-258.0,-7.0,867.0,-586.0,-912.0,130.0
635.0,75.0,-343.0,-88.0,737.0,-665.0,-791.0,422.0
725.0,80.0,-348.0,-124.0,856.0,-750.0,-704.0,593.0
576.0,46.0,-72.0,-214.0,615.0,-476.0,-565.0,608.0
477.0,114.0,175.0,-195.0,406.0,-3.0,-36.0,831.0
238.0,193.0,366.0,-180.0,542.0,123.0,409.0,804.0
44.0,201.0,606.0,-148.0,947.0,160.0,627.0,615.0
-52.0,207.0,762.0,-83.0,1077.0,412.0,1070.0,634.0
-118.0,60.0,663.0,-30.0,754.0,441.0,1205.0,491.0
-412.0,-373.0,402.0,100.0,310.0,254.0,1454.0,377.0
-580.0,-627.0,218.0,145.0,18.0,286.0,1605.0,318.0
-484.0,-509.0,-52.0,98.0,-124.0,596.0,1971.0,228.0
-396.0,-423.0,-277.0,129.0,-385.0,822.0,2557.0,111.0
-404.0,-318.0,-821.0,112.0,-543.0,837.0,3216.0,79.0
-412.0,-212.0,-1063.0,20.0,-709.0,812.0,4000.0,-1.0
-301.0,-131.0,-268.0,-34.0,-631.0,1083.0,4000.0,-210.0
-201.0,-32.0,27.0,-46.0,-840.0,1328.0,4000.0,-195.0
-142.0,91.0,42.0,-52.0,-1310.0,1390.0,4000.0,-207.0
-127.0,99.0,-78.0,-137.0,-1753.0,1340.0,4000.0,-319.0
-92.0,115.0,-692.0,-116.0,-2472.0,1063.0,4000.0,-295.0
-39.0,99.0,-937.0,16.0,-3456.0,455.0,3535.0,-419.0
-5.0,-8.0,-796.0,152.0,-4000.0,-18.0,2377.0,-529.0
-7.0,13.0,-442.0,187.0,-4000.0,-135.0,1076.0,-350.0
18.0,17.0,-119.0,232.0,-4000.0,9.0,29.0,-219.0
14.0,78.0,-481.0,301.0,-4000.0,506.0,-1043.0,-104.0
9.0,89.0,-1003.0,303.0,-4000.0,492.0,-1884.0,59.0
45.0,102.0,-490.0,402.0,-4000.0,197.0,-2418.0,281.0
52.0,144.0,177.0,622.0,-4000.0,250.0,-2093.0,583.0
77.0,136.0,801.0,646.0,-4000.0,336.0,-1332.0,563.0
99.0,157.0,1175.0,264.0,-3001.0,262.0,-2208.0,292.0
82.0,146.0,788.0,75.0,399.0,31.0,-4000.0,49.0
-31.0,117.0,683.0,-83.0,2813.0,-214.0,-4000.0,-94.0
-179.0,48.0,689.0,-332.0,3707.0,-161.0,-4000.0,-158.0
-108.0,25.0,533.0,-351.0,3595.0,-95.0,-4000.0,-315.0
16.0,-18.0,372.0,-348.0,2251.0,-390.0,-4000.0,-575.0
33.0,-54.0,183.0,-273.0,1091.0,-963.0,-4000.0,-758.0
101.0,-72.0,-198.0,-178.0,253.0,-1161.0,-4000.0,-818.0
126.0,-52.0,-389.0,-21.0,-1398.0,-1257.0,-4000.0,-620.0
143.0,2.0,-69.0,34.0,-2018.0,-1381.0,-4000.0,-427.0
147.0,-18.0,5.0,59.0,-1606.0,-831.0,-4000.0,-377.0
86.0,-40.0,-180.0,187.0,-1750.0,-533.0,-3916.0,-320.0
42.0,-97.0,-188.0,144.0,-1918.0,-340.0,-1887.0,-248.0
27.0,-62.0,-120.0,164.0,-2664.0,-391.0,5.0,-118.0
17.0,45.0,-217.0,62.0,-3661.0,-770.0,1670.0,-101.0
-46.0,150.0,-271.0,-89.0,-4000.0,-680.0,2440.0,-217.0
-50.0,209.0,-328.0,-68.0,-4000.0,-844.0,2570.0,-410.0
-12.0,229.0,-343.0,1.0,-4000.0,-997.0,3009.0,-488.0
-31.0,95.0,-172.0,112.0,-3445.0,-881.0,4000.0,-614.0
-20.0,-47.0,-55.0,110.0,-1638.0,-783.0,4000.0,-779.0
-14.0,-70.0,-43.0,134.0,-22.0,-1452.0,4000.0,-671.0
-13.0,-161.0,-124.0,130.0,2047.0,-2286.0,4000.0,-340.0
17.0,-82.0,-257.0,110.0,4000.0,-2660.0,4000.0,122.0
80.0,-85.0,-300.0,88.0,4000.0,-2856.0,4000.0,685.0
73.0,-156.0,69.0,25.0,4000.0,-2228.0,4000.0,903.0
72.0,-114.0,427.0,-1.0,4000.0,-1792.0,4000.0,609.0
86.0,-11.0,284.0,18.0,4000.0,-1112.0,4000.0,-94.0
40.0,91.0,83.0,60.0,4000.0,-232.0,4000.0,-924.0
49.0,103.0,136.0,26.0,4000.0,143.0,4000.0,-1123.0
6.0,53.0,179.0,-20.0,4000.0,303.0,4000.0,-798.0
-10.0,18.0,207.0,-122.0,4000.0,402.0,4000.0,-540.0
20.0,58.0,337.0,-251.0,4000.0,607.0,4000.0,-518.0
-4.0,56.0,398.0,-409.0,4000.0,684.0,3990.0,-540.0
1.0,60.0,166.0,-433.0,4000.0,961.0,3298.0,-488.0
5.0,81.0,-29.0,-376.0,4000.0,1018.0,3298.0,-419.0
-14.0,83.0,171.0,-359.0,4000.0,953.0,3791.0,-266.0
-25.0,41.0,195.0,-263.0,3020.0,1018.0,4000.0,34.0
-63.0,24.0,128.0,-150.0,2551.0,738.0,3795.0,255.0
-62.0,69.0,-55.0,-78.0,2425.0,152.0,3021.0,615.0
-43.0,91.0,-403.0,12.0,1734.0,-266.0,2908.0,731.0
-49.0,105.0,-255.0,103.0,887.0,-485.0,2761.0,352.0
8.0,108.0,150.0,71.0,293.0,-459.0,2125.0,154.0
18.0,147.0,421.0,47.0,-621.0,147.0,1199.0,51.0
-42.0,107.0,410.0,11.0,-1051.0,411.0,-73.0,218.0
-72.0,38.0,316.0,-12.0,228.0,498.0,-1184.0,595.0
-34.0,-43.0,318.0,19.0,1509.0,687.0,-1884.0,1142.0
-75.0,-224.0,301.0,209.0,2776.0,933.0,-2251.0,1716.0
-92.0,-248.0,253.0,511.0,3916.0,802.0,-1718.0,2054.0
-33.0,-227.0,410.0,310.0,4000.0,987.0,-817.0,2237.0
-62.0,-304.0,465.0,-171.0,4000.0,1720.0,-672.0,1793.0
-72.0,-448.0,-15.0,-523.0,4000.0,2255.0,-403.0,1502.0
-109.0,-476.0,-383.0,-784.0,4000.0,2512.0,-676.0,1241.0
-64.0,-357.0,-716.0,-760.0,4000.0,2382.0,-1266.0,772.0
-10.0,-469.0,-938.0,-702.0,4000.0,2512.0,-1755.0,491.0
-60.0,-631.0,-651.0,-574.0,4000.0,2319.0,-1914.0,288.0
-1.0,-492.0,-479.0,-332.0,4000.0,2047.0,-1618.0,190.0
40.0,-295.0,-389.0,-136.0,4000.0,1864.0,-1441.0,163.0
0.0,-275.0,-99.0,109.0,3346.0,1591.0,-1193.0,28.0
-29.0,-188.0,190.0,240.0,-795.0,1227.0,-1258.0,-148.0
-31.0,-34.0,145.0,207.0,-4000.0,921.0,-1291.0,-169.0
-40.0,110.0,186.0,132.0,-4000.0,888.0,-1377.0,-28.0
-55.0,164.0,212.0,87.0,-4000.0,1012.0,-1332.0,49.0
-12.0,298.0,6.0,-98.0,-4000.0,1083.0,-1197.0,-12.0
4.0,369.0,-358.0,-118.0,-4000.0,1048.0,-1076.0,26.0
3.0,256.0,-833.0,12.0,-4000.0,961.0,-941.0,-59.0
48.0,282.0,-425.0,7.0,-4000.0,677.0,-1030.0,-327.0
27.0,260.0,736.0,10.0,-4000.0,441.0,-1096.0,-534.0
73.0,268.0,1257.0,-68.0,-3835.0,282.0,-1038.0,-608.0
103.0,217.0,703.0,-53.0,-2729.0,109.0,-802.0,-659.0
27.0,182.0,-175.0,-65.0,-2419.0,-159.0,-550.0,-889.0
-197.0,200.0,-564.0,-33.0,-2953.0,-354.0,-318.0,-1200.0
-612.0,211.0,-515.0,81.0,-4000.0,-379.0,-182.0,-1404.0
-506.0,195.0,-552.0,77.0,-4000.0,-613.0,-214.0,-1590.0
-201.0,114.0,-536.0,49.0,-4000.0,-613.0,-408.0,-1659.0
-145.0,108.0,-499.0,27.0,-4000.0,-548.0,-383.0,-1672.0
214.0,-5.0,-645.0,11.0,-4000.0,-575.0,-14.0,-1404.0
408.0,5.0,-716.0,0.0,-4000.0,-672.0,321.0,-973.0
399.0,70.0,-606.0,38.0,-4000.0,-745.0,746.0,-687.0
226.0,30.0,-385.0,29.0,-4000.0,-555.0,717.0,-525.0
104.0,84.0,-425.0,64.0,-4000.0,-531.0,416.0,-692.0
98.0,125.0,-776.0,171.0,-4000.0,-790.0,249.0,-931.0
-373.0,93.0,-615.0,193.0,-4000.0,-1270.0,3.0,-1037.0
-412.0,29.0,218.0,204.0,-4000.0,-1502.0,-51.0,-1057.0
144.0,3.0,512.0,172.0,-4000.0,-1396.0,-49.0,-996.0
508.0,1.0,533.0,118.0,-4000.0,-2313.0,-273.0,-824.0
758.0,0.0,425.0,77.0,-4000.0,-3387.0,-1038.0,-627.0
701.0,-21.0,328.0,62.0,-4000.0,-3507.0,-2251.0,-431.0
125.0,-47.0,337.0,-5.0,-3250.0,-2922.0,-3131.0,-78.0
-610.0,-29.0,269.0,39.0,-446.0,-1607.0,-2560.0,269.0
-670.0,27.0,480.0,77.0,1842.0,-397.0,-768.0,409.0
52.0,56.0,571.0,19.0,3595.0,469.0,620.0,394.0
371.0,84.0,573.0,48.0,4000.0,1063.0,1060.0,532.0
574.0,91.0,728.0,68.0,4000.0,758.0,262.0,522.0
508.0,56.0,1098.0,142.0,4000.0,713.0,-680.0,499.0
238.0,34.0,858.0,207.0,4000.0,1018.0,-65.0,851.0
70.0,33.0,466.0,132.0,4000.0,619.0,759.0,1118.0
-114.0,50.0,272.0,0.0,4000.0,390.0,1092.0,1207.0
-145.0,55.0,20.0,-57.0,4000.0,57.0,1406.0,896.0
-221.0,57.0,10.0,-68.0,4000.0,-261.0,1274.0,635.0
-190.0,46.0,-9.0,-56.0,4000.0,-221.0,1158.0,609.0
-157.0,55.0,-198.0,-62.0,3837.0,-312.0,883.0,541.0
-104.0,75.0,-415.0,-51.0,3037.0,-336.0,548.0,422.0
-95.0,66.0,-200.0,-2.0,2320.0,-327.0,2.0,178.0
-152.0,34.0,-166.0,-8.0,1995.0,-232.0,-717.0,93.0
-219.0,4.0,-385.0,-57.0,1920.0,-73.0,-713.0,-19.0
-227.0,34.0,-446.0,-89.0,1799.0,62.0,-575.0,8.0
-165.0,93.0,-328.0,-99.0,1710.0,96.0,-615.0,-131.0
-106.0,87.0,-243.0,-91.0,1639.0,92.0,-507.0,-317.0
-79.0,89.0,-186.0,-53.0,1644.0,153.0,-351.0,-334.0
-214.0,125.0,-26.0,-11.0,1669.0,126.0,-420.0,-411.0
-357.0,-5.0,55.0,31.0,1591.0,-78.0,-522.0,-262.0
-250.0,-136.0,73.0,7.0,1482.0,-52.0,-327.0,-124.0
-162.0,-147.0,24.0,-6.0,1417.0,16.0,-79.0,-124.0
-121.0,-213.0,42.0,19.0,1409.0,-59.0,100.0,-124.0
45.0,-267.0,74.0,44.0,1409.0,124.0,563.0,295.0
151.0,-204.0,111.0,67.0,1182.0,155.0,622.0,499.0
235.0,-175.0,98.0,48.0,902.0,74.0,-125.0,474.0
44.0,-253.0,56.0,45.0,1018.0,-13.0,-986.0,361.0
-138.0,-277.0,89.0,69.0,994.0,41.0,-1397.0,59.0
-771.0,-118.0,92.0,99.0,790.0,341.0,-1199.0,74.0
-2421.0,-102.0,50.0,-14.0,876.0,524.0,-1128.0,159.0
-2137.0,-179.0,34.0,-28.0,953.0,608.0,-1238.0,556.0
-51.0,-108.0,-15.0,-8.0,953.0,576.0,-1977.0,563.0
1084.0,-103.0,8.0,-86.0,792.0,498.0,-3171.0,825.0
2211.0,-70.0,370.0,-27.0,361.0,368.0,-1793.0,2029.0
2052.0,-41.0,779.0,204.0,169.0,295.0,1214.0,2835.0
1515.0,-23.0,476.0,503.0,143.0,178.0,3708.0,2941.0
1124.0,34.0,-312.0,251.0,-12.0,54.0,4000.0,2314.0
514.0,63.0,-515.0,-134.0,12.0,-114.0,4000.0,1638.0
416.0,60.0,-306.0,-233.0,-120.0,-318.0,3151.0,1012.0
114.0,128.0,92.0,-233.0,-319.0,-442.0,2179.0,645.0
82.0,238.0,61.0,-44.0,-130.0,-582.0,1670.0,608.0
-233.0,290.0,-317.0,21.0,94.0,-600.0,1060.0,695.0
-295.0,290.0,-393.0,169.0,469.0,-607.0,464.0,825.0
-350.0,266.0,-432.0,229.0,374.0,-521.0,8.0,881.0
-392.0,225.0,-303.0,161.0,-395.0,-411.0,-998.0,955.0
-416.0,57.0,-338.0,68.0,-1849.0,-247.0,-1848.0,939.0
-569.0,-144.0,-442.0,-111.0,-3456.0,-112.0,-2121.0,1000.0
-476.0,-159.0,-255.0,-179.0,-1691.0,25.0,-826.0,1077.0
-428.0,-81.0,42.0,-234.0,2581.0,237.0,-36.0,938.0
-225.0,-21.0,374.0,-166.0,4000.0,449.0,-220.0,487.0
-162.0,85.0,634.0,-182.0,4000.0,713.0,-333.0,29.0
-148.0,85.0,526.0,-228.0,4000.0,858.0,523.0,-293.0
-201.0,-91.0,44.0,-206.0,4000.0,1059.0,989.0,-563.0
-227.0,-255.0,-229.0,-170.0,3167.0,1443.0,845.0,-664.0
-181.0,-247.0,-203.0,-121.0,-1163.0,1905.0,1288.0,-797.0
-102.0,-214.0,-178.0,-132.0,-3604.0,2159.0,1214.0,-692.0
-120.0,-314.0,-105.0,-121.0,-4000.0,2550.0,1084.0,-679.0
-134.0,-303.0,-205.0,-123.0,-4000.0,2710.0,374.0,-679.0
48.0,-145.0,-251.0,-110.0,-4000.0,2319.0,-10.0,-417.0
63.0,-56.0,-226.0,-63.0,-4000.0,2230.0,-91.0,-297.0
54.0,-20.0,-334.0,-32.0,-4000.0,2177.0,142.0,-161.0
15.0,-14.0,-505.0,-18.0,-4000.0,2124.0,533.0,-127.0
-17.0,31.0,-610.0,-17.0,-4000.0,1824.0,362.0,-39.0
-19.0,78.0,-258.0,9.0,-4000.0,1258.0,425.0,207.0
-81.0,103.0,345.0,-8.0,-3391.0,944.0,213.0,401.0
-61.0,150.0,830.0,-89.0,-2921.0,538.0,551.0,462.0
-18.0,191.0,546.0,-95.0,-2611.0,225.0,693.0,442.0
-4.0,174.0,120.0,-116.0,-2472.0,78.0,637.0,499.0
-21.0,162.0,299.0,-137.0,-2466.0,-349.0,557.0,432.0
-118.0,189.0,624.0,-165.0,-2318.0,-945.0,380.0,224.0
-170.0,215.0,1003.0,-289.0,-2303.0,-1422.0,72.0,318.0
-186.0,194.0,782.0,-307.0,-2158.0,-1818.0,-678.0,677.0
-166.0,122.0,-255.0,-189.0,-1953.0,-2040.0,-1162.0,654.0
-42.0,108.0,-976.0,-146.0,-1313.0,-2105.0,-1781.0,142.0
28.0,102.0,-971.0,-84.0,-599.0,-2185.0,-1822.0,-194.0
73.0,75.0,-536.0,2.0,-174.0,-2113.0,-2481.0,-536.0
119.0,44.0,-231.0,38.0,-27.0,-2185.0,-3118.0,-788.0
234.0,45.0,-401.0,51.0,414.0,-2144.0,-2246.0,-602.0
346.0,62.0,-354.0,4.0,1189.0,-2026.0,-1441.0,-329.0
412.0,113.0,70.0,27.0,2124.0,-1880.0,-420.0,-577.0
471.0,120.0,454.0,76.0,3074.0,-1617.0,1158.0,-692.0
580.0,124.0,428.0,60.0,3346.0,-1511.0,1593.0,-540.0
626.0,196.0,173.0,69.0,2363.0,-1467.0,1293.0,-1013.0
412.0,99.0,-403.0,60.0,375.0,-1461.0,897.0,-1387.0
263.0,-15.0,-687.0,84.0,-1059.0,-1242.0,196.0,-1390.0
172.0,-37.0,-313.0,97.0,-1390.0,-965.0,36.0,-489.0
110.0,-54.0,-163.0,61.0,-614.0,-685.0,-298.0,-305.0
36.0,-73.0,160.0,46.0,538.0,-510.0,-1063.0,-1315.0
-40.0,-33.0,474.0,26.0,823.0,-678.0,-1673.0,-948.0
-44.0,22.0,606.0,54.0,808.0,-745.0,-1397.0,-948.0
-112.0,21.0,318.0,41.0,961.0,-615.0,-635.0,-529.0
-142.0,16.0,131.0,13.0,1314.0,-433.0,-298.0,86.0
-201.0,23.0,231.0,34.0,2100.0,64.0,26.0,-175.0
-145.0,9.0,-129.0,6.0,2680.0,380.0,-190.0,-125.0
-55.0,-8.0,-218.0,26.0,2760.0,261.0,-440.0,165.0
-81.0,7.0,-190.0,39.0,2810.0,92.0,416.0,61.0
-108.0,18.0,-129.0,41.0,3008.0,209.0,888.0,-846.0
-170.0,1.0,73.0,59.0,3772.0,554.0,1078.0,-918.0
-166.0,0.0,112.0,47.0,4000.0,791.0,539.0,-1170.0
-158.0,12.0,132.0,55.0,4000.0,750.0,-477.0,-1135.0
-183.0,17.0,150.0,50.0,4000.0,795.0,-127.0,-801.0
-166.0,-4.0,15.0,46.0,4000.0,784.0,83.0,-909.0
-94.0,-10.0,-40.0,26.0,4000.0,619.0,211.0,-776.0
-88.0,22.0,32.0,13.0,2772.0,571.0,720.0,-948.0
-81.0,26.0,23.0,-19.0,1669.0,510.0,376.0,-913.0
38.0,19.0,57.0,-41.0,1083.0,563.0,348.0,-924.0
184.0,27.0,64.0,-52.0,672.0,510.0,881.0,-948.0
157.0,2.0,99.0,-61.0,415.0,445.0,988.0,-948.0
-9.0,-27.0,89.0,-51.0,217.0,402.0,335.0,-1208.0
-47.0,3.0,92.0,-65.0,125.0,348.0,-967.0,-1514.0
-150.0,0.0,142.0,-31.0,109.0,401.0,-1312.0,-1384.0
-219.0,6.0,128.0,-36.0,228.0,338.0,-1227.0,-1078.0
-203.0,52.0,166.0,-49.0,509.0,283.0,-1702.0,-724.0
-203.0,33.0,215.0,-44.0,684.0,203.0,-2311.0,-394.0
-147.0,22.0,172.0,-48.0,766.0,236.0,-2577.0,-252.0
-141.0,73.0,64.0,-11.0,692.0,246.0,-1042.0,304.0
-105.0,140.0,7.0,-9.0,414.0,96.0,365.0,760.0
-59.0,189.0,-81.0,-3.0,169.0,71.0,1267.0,1045.0
4.0,198.0,-139.0,-12.0,206.0,152.0,2647.0,600.0
-36.0,134.0,-198.0,-24.0,766.0,225.0,2290.0,406.0
-79.0,74.0,-149.0,-16.0,1332.0,368.0,2190.0,1012.0
-79.0,49.0,-85.0,-40.0,1344.0,477.0,2358.0,406.0
-111.0,33.0,-72.0,-80.0,1026.0,325.0,1788.0,-484.0
-92.0,-37.0,-45.0,-80.0,627.0,69.0,1510.0,-993.0
-31.0,-149.0,-94.0,-82.0,265.0,-114.0,1214.0,-1325.0
16.0,-181.0,-131.0,-83.0,36.0,-40.0,1125.0,-1475.0
35.0,-241.0,-173.0,-26.0,-14.0,167.0,687.0,-1860.0
60.0,-292.0,-68.0,-26.0,-130.0,246.0,506.0,-2228.0
67.0,-403.0,-22.0,-21.0,-386.0,271.0,352.0,-2100.0
44.0,-488.0,-53.0,-15.0,-664.0,246.0,290.0,-928.0
72.0,-466.0,-42.0,-26.0,-1012.0,200.0,189.0,-1856.0
113.0,-411.0,-47.0,-6.0,-1313.0,94.0,-206.0,-3374.0
81.0,-408.0,-49.0,-9.0,-1202.0,4.0,-519.0,-2324.0
61.0,-375.0,-63.0,-5.0,-977.0,-43.0,-587.0,-794.0
127.0,-182.0,-79.0,-22.0,-1137.0,-67.0,-635.0,-170.0
144.0,-74.0,-86.0,0.0,-1606.0,-80.0,-992.0,-345.0
77.0,-40.0,-60.0,4.0,-1649.0,-36.0,-1435.0,-1043.0
47.0,30.0,-93.0,-38.0,-1601.0,39.0,-1397.0,-1959.0
33.0,162.0,-122.0,-6.0,-1398.0,127.0,-1071.0,-2283.0
64.0,239.0,-133.0,60.0,-1007.0,180.0,-1054.0,-2347.0
80.0,321.0,-98.0,84.0,-791.0,92.0,-1141.0,-1143.0
89.0,395.0,-37.0,64.0,-653.0,-24.0,-1271.0,808.0
147.0,383.0,-3.0,43.0,-862.0,-113.0,-1309.0,2367.0
131.0,300.0,1.0,54.0,-968.0,-115.0,-1136.0,3356.0
63.0,176.0,45.0,25.0,-705.0,-31.0,-533.0,4000.0
-6.0,78.0,132.0,-38.0,-364.0,35.0,-17.0,4000.0
-91.0,-85.0,160.0,-61.0,-335.0,59.0,185.0,4000.0
-234.0,-292.0,104.0,-128.0,-335.0,-1.0,238.0,3469.0
-327.0,-236.0,12.0,-76.0,-364.0,-20.0,-69.0,1848.0
-250.0,67.0,75.0,47.0,-418.0,10.0,-63.0,881.0
-163.0,233.0,119.0,39.0,-250.0,15.0,209.0,-169.0
-147.0,309.0,85.0,-17.0,-421.0,-44.0,432.0,-1120.0
-128.0,282.0,24.0,-107.0,-818.0,-89.0,622.0,-2567.0
-140.0,205.0,-112.0,-163.0,-1244.0,-94.0,652.0,-3178.0
-149.0,90.0,-241.0,-155.0,-1455.0,-14.0,427.0,-3007.0
-128.0,-53.0,-271.0,-101.0,-1358.0,268.0,136.0,-2296.0
-23.0,-157.0,-192.0,-31.0,-474.0,636.0,5.0,-2322.0
98.0,-373.0,-73.0,-13.0,242.0,781.0,127.0,-1891.0
225.0,-414.0,-69.0,-55.0,-120.0,673.0,429.0,938.0
358.0,-275.0,-99.0,-69.0,-478.0,441.0,535.0,2624.0
399.0,-224.0,-19.0,8.0,-586.0,303.0,474.0,3806.0
312.0,-208.0,-15.0,23.0,-470.0,200.0,441.0,3521.0
199.0,-204.0,-55.0,-56.0,-404.0,31.0,445.0,1077.0
139.0,-125.0,-44.0,-55.0,-259.0,3.0,400.0,-1772.0
72.0,-50.0,-18.0,1.0,497.0,23.0,319.0,-4000.0
49.0,-34.0,19.0,26.0,1279.0,92.0,273.0,-4000.0
17.0,18.0,24.0,25.0,1533.0,129.0,220.0,-4000.0
-107.0,38.0,80.0,49.0,1395.0,72.0,126.0,-4000.0
-331.0,91.0,279.0,85.0,994.0,-52.0,141.0,-4000.0
-258.0,117.0,573.0,40.0,680.0,-200.0,349.0,-4000.0
47.0,129.0,840.0,32.0,766.0,-267.0,254.0,-4000.0
176.0,142.0,807.0,62.0,953.0,-255.0,-5.0,-4000.0
300.0,141.0,486.0,42.0,754.0,-226.0,-110.0,-2230.0
184.0,175.0,-115.0,63.0,-376.0,-243.0,-167.0,4000.0
8.0,173.0,-409.0,37.0,-2016.0,-211.0,-124.0,4000.0
-85.0,196.0,-389.0,-32.0,-2710.0,-262.0,-110.0,4000.0
-152.0,197.0,-168.0,-6.0,-2296.0,-373.0,-44.0,4000.0
-138.0,196.0,217.0,19.0,-1239.0,-340.0,67.0,4000.0
-144.0,201.0,260.0,-23.0,-395.0,-186.0,72.0,4000.0
-91.0,215.0,205.0,6.0,82.0,105.0,40.0,4000.0
-50.0,272.0,112.0,-5.0,497.0,311.0,34.0,4000.0
-33.0,290.0,337.0,-61.0,1279.0,358.0,116.0,4000.0
-43.0,300.0,931.0,-126.0,1970.0,276.0,213.0,4000.0
-9.0,355.0,944.0,-190.0,2646.0,-98.0,359.0,4000.0
20.0,411.0,1041.0,-162.0,4000.0,-371.0,445.0,4000.0
-20.0,290.0,1359.0,-119.0,4000.0,-189.0,455.0,4000.0
-72.0,146.0,67.0,-143.0,4000.0,-39.0,504.0,4000.0
-92.0,20.0,-1146.0,-137.0,4000.0,-5.0,587.0,4000.0
-123.0,-143.0,-1427.0,-129.0,4000.0,178.0,656.0,4000.0
-162.0,-224.0,-1231.0,-125.0,4000.0,296.0,498.0,4000.0
-102.0,-232.0,-798.0,-148.0,4000.0,354.0,271.0,4000.0
-30.0,-222.0,-1101.0,-151.0,4000.0,241.0,23.0,4000.0
-40.0,-275.0,-1199.0,-113.0,3727.0,-289.0,-205.0,2550.0
-41.0,-267.0,-906.0,-119.0,2317.0,-621.0,-325.0,1052.0
-53.0,-271.0,-385.0,-46.0,733.0,-715.0,-363.0,-235.0
-49.0,-237.0,-357.0,61.0,-803.0,-737.0,-233.0,-859.0
-53.0,-182.0,-484.0,139.0,-2403.0,-354.0,-171.0,-1383.0
-29.0,-188.0,-77.0,154.0,-3753.0,97.0,-212.0,-2035.0
9.0,-181.0,-102.0,149.0,-4000.0,203.0,-253.0,-2035.0
-40.0,-145.0,-585.0,137.0,-4000.0,150.0,-163.0,-1924.0
-52.0,-63.0,-628.0,132.0,-4000.0,132.0,-5.0,-1723.0
-61.0,-47.0,-363.0,48.0,-4000.0,78.0,68.0,-1579.0
-83.0,26.0,-363.0,-109.0,-4000.0,1.0,227.0,-1774.0
-85.0,103.0,-214.0,-200.0,-4000.0,-51.0,455.0,-2016.0
-87.0,143.0,-173.0,-195.0,-4000.0,73.0,628.0,-1839.0
-46.0,199.0,-107.0,-86.0,-4000.0,152.0,687.0,-2050.0
-40.0,278.0,114.0,-34.0,-4000.0,31.0,693.0,-2670.0
-36.0,286.0,215.0,14.0,-4000.0,-44.0,734.0,-2931.0
-24.0,258.0,284.0,45.0,-4000.0,73.0,793.0,-2812.0
-14.0,227.0,393.0,32.0,-3575.0,168.0,772.0,-2670.0
-14.0,170.0,258.0,44.0,-3507.0,89.0,667.0,-2941.0
5.0,155.0,236.0,20.0,-3192.0,40.0,439.0,-3073.0
92.0,59.0,598.0,50.0,-2649.0,6.0,234.0,-3154.0
90.0,-2.0,642.0,38.0,-1978.0,57.0,335.0,-3588.0
111.0,-83.0,254.0,27.0,-1359.0,81.0,355.0,-4000.0
139.0,-196.0,16.0,51.0,-360.0,31.0,-9.0,-4000.0
126.0,-266.0,-45.0,74.0,701.0,-37.0,-363.0,-4000.0
86.0,-334.0,-110.0,49.0,933.0,-111.0,-607.0,-3647.0
-28.0,-367.0,-47.0,64.0,1352.0,-175.0,-678.0,-2165.0
-37.0,-334.0,1.0,90.0,1865.0,-195.0,-750.0,-1644.0
-77.0,-275.0,72.0,68.0,3410.0,-67.0,-876.0,-2218.0
-152.0,-375.0,83.0,68.0,4000.0,99.0,-902.0,-2425.0
-193.0,-414.0,345.0,90.0,4000.0,155.0,-876.0,-2959.0
-174.0,-305.0,655.0,112.0,4000.0,135.0,-685.0,-3007.0
-104.0,-150.0,354.0,59.0,4000.0,53.0,-538.0,-2806.0
-152.0,-77.0,39.0,63.0,4000.0,-93.0,-477.0,-2865.0
-302.0,-163.0,31.0,51.0,4000.0,-122.0,-384.0,-2800.0
-227.0,-106.0,47.0,21.0,4000.0,-214.0,-320.0,-2682.0
77.0,-46.0,85.0,39.0,4000.0,-220.0,-308.0,-2377.0
228.0,18.0,160.0,-2.0,2683.0,8.0,-379.0,-1860.0
406.0,28.0,213.0,-7.0,908.0,95.0,-318.0,-1148.0
428.0,51.0,153.0,-26.0,-1333.0,123.0,-247.0,-1078.0
308.0,98.0,83.0,-50.0,-2250.0,194.0,-320.0,-1774.0
256.0,102.0,148.0,-9.0,-1137.0,272.0,-279.0,-2555.0
116.0,149.0,83.0,-60.0,-464.0,319.0,-97.0,-2558.0
107.0,212.0,-164.0,-112.0,-612.0,348.0,-77.0,-1986.0
93.0,270.0,-115.0,-87.0,-372.0,283.0,-80.0,-1126.0
23.0,248.0,70.0,-101.0,58.0,219.0,92.0,-386.0
-15.0,176.0,85.0,-101.0,-177.0,246.0,139.0,654.0
-31.0,233.0,28.0,-119.0,-1174.0,315.0,40.0,2118.0
-48.0,384.0,-3.0,-91.0,-1609.0,368.0,62.0,2551.0
-156.0,200.0,26.0,-52.0,-1572.0,439.0,68.0,3137.0
-222.0,-44.0,-16.0,-100.0,-1383.0,374.0,113.0,3784.0
-371.0,-10.0,5.0,-90.0,-1265.0,232.0,294.0,4000.0
-569.0,-40.0,15.0,-14.0,-1717.0,134.0,243.0,4000.0
-288.0,-111.0,49.0,1.0,-1649.0,-22.0,220.0,4000.0
144.0,-121.0,20.0,13.0,-1515.0,37.0,158.0,3897.0
365.0,-134.0,-67.0,54.0,-1263.0,172.0,199.0,3340.0
514.0,-85.0,-66.0,37.0,-947.0,177.0,404.0,2883.0
306.0,-37.0,-99.0,20.0,-803.0,45.0,470.0,2248.0
134.0,-40.0,-96.0,22.0,-941.0,-81.0,533.0,2054.0
-23.0,-125.0,-89.0,12.0,-947.0,-20.0,343.0,2172.0
-104.0,-32.0,0.0,22.0,-551.0,37.0,350.0,2248.0
-113.0,79.0,75.0,-1.0,-698.0,16.0,376.0,2054.0
-152.0,33.0,55.0,-41.0,-421.0,65.0,311.0,1525.0
-59.0,68.0,30.0,-14.0,-19.0,175.0,283.0,825.0
-120.0,63.0,26.0,22.0,-157.0,225.0,99.0,43.0
-188.0,95.0,-41.0,60.0,-30.0,216.0,169.0,-685.0
-193.0,102.0,-95.0,81.0,142.0,299.0,392.0,-1632.0
-183.0,70.0,-38.0,69.0,47.0,420.0,554.0,-2362.0
-140.0,48.0,-59.0,77.0,104.0,380.0,394.0,-2605.0
-120.0,11.0,20.0,85.0,270.0,246.0,90.0,-3127.0
-100.0,69.0,179.0,113.0,308.0,54.0,51.0,-3824.0
-66.0,19.0,246.0,152.0,137.0,-186.0,62.0,-4000.0
-40.0,-68.0,230.0,142.0,196.0,-423.0,-15.0,-4000.0
-41.0,-70.0,223.0,110.0,200.0,-638.0,-22.0,-4000.0
-3.0,-78.0,201.0,42.0,184.0,-729.0,26.0,-4000.0
25.0,-57.0,54.0,7.0,71.0,-768.0,9.0,-4000.0
68.0,-26.0,-28.0,-28.0,-309.0,-678.0,-161.0,-4000.0
86.0,12.0,-30.0,-59.0,-339.0,-710.0,-253.0,-4000.0
38.0,14.0,-90.0,-75.0,-724.0,-900.0,-121.0,-4000.0
98.0,12.0,-138.0,-118.0,-999.0,-926.0,-32.0,-4000.0
303.0,37.0,-135.0,-101.0,-1064.0,-932.0,-363.0,-4000.0
277.0,29.0,-125.0,-92.0,-1691.0,-881.0,-703.0,-4000.0
147.0,29.0,-115.0,-78.0,-2405.0,-1070.0,-701.0,-4000.0
137.0,84.0,-160.0,-69.0,-1606.0,-1127.0,-642.0,-4000.0
2.0,173.0,-140.0,-55.0,-327.0,-985.0,-587.0,-4000.0
-89.0,311.0,-88.0,2.0,-48.0,-685.0,-542.0,-4000.0
-135.0,663.0,-110.0,42.0,1148.0,-178.0,-635.0,-4000.0
-147.0,1006.0,-114.0,47.0,1344.0,-12.0,-1038.0,-4000.0
-101.0,1038.0,-81.0,22.0,1579.0,329.0,-1193.0,-4000.0
-70.0,964.0,-66.0,16.0,1639.0,563.0,-835.0,-4000.0
-19.0,521.0,-39.0,-13.0,279.0,-8.0,-477.0,-4000.0
-28.0,-111.0,-40.0,-93.0,-281.0,-446.0,-517.0,-4000.0
-64.0,-562.0,-64.0,-119.0,-1853.0,-816.0,-717.0,-2930.0
-109.0,-1017.0,-57.0,-147.0,-2822.0,-1330.0,-522.0,-2035.0
-109.0,-1200.0,-80.0,-155.0,-3701.0,-1005.0,-161.0,-1298.0
-132.0,-1283.0,-78.0,-28.0,-4000.0,-216.0,152.0,-297.0
-136.0,-1135.0,-45.0,240.0,-2860.0,597.0,339.0,424.0
-111.0,-1005.0,-32.0,286.0,-2530.0,1468.0,310.0,1326.0
-95.0,-948.0,-78.0,-171.0,-4000.0,2159.0,464.0,2013.0
-49.0,-879.0,-119.0,-420.0,-4000.0,2888.0,803.0,2742.0
42.0,-810.0,-98.0,-438.0,-4000.0,2450.0,801.0,3356.0
119.0,-264.0,-36.0,-409.0,-4000.0,1580.0,529.0,3983.0
43.0,70.0,24.0,-239.0,-4000.0,1340.0,642.0,4000.0
18.0,144.0,60.0,-193.0,-4000.0,243.0,717.0,4000.0
21.0,167.0,85.0,-143.0,-4000.0,528.0,824.0,4000.0
39.0,251.0,122.0,-84.0,-4000.0,1092.0,1060.0,4000.0
78.0,439.0,77.0,55.0,-1979.0,413.0,1084.0,4000.0
106.0,521.0,72.0,171.0,-234.0,758.0,1060.0,4000.0
98.0,615.0,157.0,174.0,1604.0,1405.0,995.0,4000.0
42.0,767.0,152.0,150.0,2060.0,1344.0,1084.0,4000.0
51.0,767.0,116.0,144.0,2972.0,811.0,1313.0,4000.0
37.0,652.0,24.0,150.0,2745.0,419.0,1214.0,4000.0
41.0,536.0,-45.0,187.0,1920.0,8.0,693.0,4000.0
-5.0,408.0,-86.0,164.0,2190.0,-419.0,326.0,4000.0
5.0,347.0,-45.0,155.0,3202.0,-568.0,309.0,4000.0
196.0,303.0,-28.0,169.0,4000.0,-466.0,877.0,4000.0
275.0,241.0,0.0,142.0,4000.0,-476.0,1580.0,4000.0
256.0,238.0,120.0,134.0,4000.0,-186.0,1931.0,4000.0
169.0,217.0,122.0,129.0,4000.0,217.0,1353.0,4000.0
23.0,164.0,81.0,150.0,4000.0,119.0,283.0,4000.0
-64.0,130.0,41.0,128.0,4000.0,28.0,-379.0,4000.0
-41.0,78.0,5.0,113.0,4000.0,-49.0,-861.0,4000.0
51.0,63.0,38.0,98.0,4000.0,-66.0,-737.0,3079.0
73.0,23.0,102.0,64.0,4000.0,-266.0,-94.0,1977.0
-20.0,4.0,51.0,50.0,4000.0,-501.0,722.0,1176.0
-108.0,8.0,-29.0,8.0,4000.0,-611.0,968.0,396.0
-113.0,-11.0,45.0,-17.0,4000.0,-611.0,394.0,-297.0
-116.0,9.0,134.0,-60.0,4000.0,-332.0,-447.0,-889.0
-118.0,-1.0,71.0,-80.0,4000.0,86.0,-1438.0,-1469.0
-135.0,-1.0,30.0,-105.0,4000.0,94.0,-1600.0,-2062.0
-168.0,-4.0,41.0,-70.0,4000.0,-273.0,-1032.0,-2512.0
-122.0,-33.0,-197.0,-61.0,4000.0,-706.0,-310.0,-2863.0
-94.0,80.0,-418.0,-123.0,4000.0,-1096.0,-213.0,-3178.0
-103.0,248.0,-393.0,-99.0,4000.0,-1322.0,-774.0,-3386.0
-92.0,215.0,-302.0,-113.0,4000.0,-1717.0,-1258.0,-3581.0
-89.0,98.0,-163.0,-91.0,4000.0,-1912.0,-1670.0,-3695.0
-62.0,136.0,-57.0,-80.0,4000.0,-1316.0,-1710.0,-3759.0
-33.0,5.0,1.0,-113.0,4000.0,-504.0,-1201.0,-3809.0
-39.0,-297.0,20.0,-86.0,3527.0,-175.0,-224.0,-3850.0
-4.0,-417.0,31.0,-59.0,-1573.0,197.0,152.0,-3873.0
-8.0,-527.0,29.0,-76.0,-4000.0,1071.0,-86.0,-3773.0
-2.0,-520.0,-56.0,-116.0,-4000.0,1775.0,-603.0,-3593.0
42.0,-525.0,-82.0,-91.0,-4000.0,1292.0,-1141.0,-3386.0
68.0,-661.0,30.0,-56.0,-4000.0,1083.0,-1527.0,-3219.0
264.0,-469.0,29.0,-69.0,-4000.0,771.0,-1651.0,-3048.0
530.0,-356.0,-27.0,-151.0,-4000.0,171.0,-1397.0,-2863.0
701.0,-259.0,-9.0,-217.0,-4000.0,297.0,-1950.0,-2682.0
583.0,25.0,-8.0,-242.0,-4000.0,441.0,-2464.0,-2472.0
361.0,99.0,-27.0,-254.0,-4000.0,837.0,-1700.0,-2218.0
145.0,124.0,-71.0,-195.0,-4000.0,262.0,-941.0,-1921.0
-228.0,135.0,-85.0,-143.0,-4000.0,-255.0,-791.0,-1774.0
-506.0,99.0,-120.0,-128.0,-4000.0,-255.0,-383.0,-1738.0
-664.0,87.0,-167.0,-114.0,-4000.0,-297.0,99.0,-1579.0
-671.0,-36.0,-110.0,-83.0,-4000.0,-419.0,233.0,-1381.0
-584.0,-109.0,-84.0,-19.0,-4000.0,-1075.0,-144.0,-1180.0
-515.0,-59.0,-38.0,22.0,-4000.0,-1140.0,-743.0,-1269.0
-450.0,-81.0,7.0,4.0,-4000.0,-1070.0,-941.0,-1601.0
-404.0,-66.0,31.0,-1.0,-4000.0,-852.0,-876.0,-1508.0
-396.0,-23.0,183.0,0.0,-4000.0,-541.0,-555.0,-1453.0
-409.0,60.0,316.0,-31.0,-4000.0,-485.0,43.0,-1738.0
-279.0,318.0,253.0,-39.0,-4000.0,-371.0,441.0,-1404.0
-209.0,834.0,136.0,-40.0,-4000.0,-320.0,881.0,-496.0
-261.0,882.0,-193.0,-10.0,-3701.0,-327.0,1539.0,11.0
-250.0,371.0,-393.0,2.0,-1333.0,-529.0,2161.0,-389.0
42.0,18.0,-270.0,23.0,599.0,-474.0,2505.0,-1176.0
133.0,-340.0,-101.0,49.0,1840.0,-251.0,2290.0,-1111.0
147.0,-505.0,74.0,59.0,2776.0,-521.0,1657.0,-366.0
228.0,-502.0,56.0,123.0,3707.0,-615.0,946.0,-242.0
163.0,-479.0,18.0,138.0,4000.0,-147.0,243.0,13.0
241.0,-502.0,52.0,150.0,4000.0,684.0,-281.0,221.0
298.0,-633.0,44.0,270.0,4000.0,1474.0,-489.0,83.0
346.0,-398.0,-18.0,459.0,3902.0,1721.0,-393.0,64.0
295.0,25.0,-85.0,285.0,4000.0,1669.0,-208.0,399.0
285.0,36.0,-143.0,-131.0,3916.0,1466.0,102.0,1177.0
356.0,176.0,-151.0,-228.0,3493.0,932.0,498.0,1012.0
294.0,280.0,-73.0,-290.0,3215.0,256.0,759.0,992.0
269.0,87.0,-41.0,-194.0,2842.0,-39.0,897.0,890.0
291.0,99.0,12.0,-62.0,2825.0,-403.0,968.0,629.0
249.0,33.0,26.0,-68.0,2361.0,-1177.0,1007.0,192.0
195.0,41.0,-53.0,-52.0,1995.0,-1373.0,1027.0,-312.0
180.0,44.0,-16.0,77.0,1853.0,-1188.0,1119.0,328.0
143.0,70.0,48.0,223.0,2113.0,-362.0,889.0,261.0
107.0,85.0,101.0,194.0,2176.0,412.0,542.0,196.0
45.0,64.0,120.0,88.0,1865.0,616.0,563.0,322.0
17.0,95.0,41.0,38.0,1579.0,1148.0,528.0,174.0
14.0,52.0,42.0,32.0,1050.0,2189.0,404.0,286.0
0.0,85.0,67.0,-46.0,1077.0,3202.0,315.0,213.0
-28.0,51.0,94.0,-54.0,1704.0,2047.0,144.0,300.0
-79.0,3.0,107.0,-66.0,2813.0,15.0,361.0,300.0
-104.0,-27.0,77.0,-8.0,3812.0,-835.0,897.0,341.0
-183.0,-20.0,85.0,37.0,4000.0,-155.0,726.0,361.0
-174.0,26.0,60.0,-56.0,4000.0,-203.0,262.0,312.0
-111.0,145.0,52.0,-114.0,4000.0,-178.0,217.0,332.0
-69.0,311.0,61.0,-62.0,4000.0,1539.0,-54.0,292.0
-55.0,278.0,74.0,31.0,4000.0,2503.0,-200.0,264.0
-56.0,241.0,76.0,8.0,4000.0,3742.0,-267.0,241.0
-25.0,318.0,80.0,46.0,4000.0,2905.0,-412.0,239.0
-6.0,225.0,98.0,37.0,4000.0,2177.0,-353.0,241.0
-24.0,24.0,67.0,-9.0,4000.0,2019.0,-71.0,267.0
-24.0,-86.0,36.0,-12.0,4000.0,576.0,665.0,243.0
-29.0,-118.0,20.0,-16.0,4000.0,420.0,1129.0,312.0
-48.0,-209.0,27.0,5.0,4000.0,-314.0,1605.0,299.0
-43.0,-340.0,-5.0,-36.0,4000.0,-258.0,2255.0,255.0
-28.0,-404.0,-8.0,-77.0,3902.0,-409.0,1800.0,242.0
-20.0,-345.0,-15.0,-61.0,3541.0,-611.0,927.0,223.0
-20.0,-179.0,-41.0,-79.0,2813.0,-737.0,-195.0,255.0
2.0,-53.0,-15.0,-111.0,1734.0,-1396.0,-2091.0,276.0
10.0,14.0,-36.0,-79.0,1417.0,-1367.0,-3585.0,340.0
-7.0,43.0,-37.0,-89.0,1204.0,-1604.0,-3916.0,348.0
-31.0,-16.0,-38.0,-136.0,1006.0,-1461.0,-4000.0,352.0
-35.0,-26.0,-29.0,-195.0,787.0,-1010.0,-3920.0,379.0
-76.0,-11.0,-31.0,-228.0,607.0,-406.0,-2139.0,369.0
-105.0,-44.0,-49.0,-247.0,440.0,40.0,-1384.0,276.0
-55.0,-43.0,5.0,-171.0,154.0,194.0,-867.0,212.0
-43.0,-44.0,14.0,-111.0,130.0,308.0,-527.0,196.0
-67.0,-53.0,-1.0,-120.0,151.0,433.0,-598.0,151.0
-73.0,-22.0,40.0,-39.0,373.0,282.0,-169.0,98.0
-35.0,41.0,30.0,54.0,692.0,-94.0,-141.0,2.0
-47.0,87.0,-6.0,146.0,1136.0,-1.0,-23.0,-76.0
-88.0,170.0,-31.0,229.0,1409.0,33.0,-134.0,-168.0
-55.0,384.0,-76.0,199.0,1148.0,-21.0,-65.0,-219.0
-34.0,471.0,-72.0,108.0,888.0,214.0,74.0,-262.0
-35.0,319.0,-86.0,108.0,-10.0,831.0,183.0,-276.0
-32.0,211.0,-61.0,51.0,-1619.0,1409.0,432.0,-209.0
-9.0,109.0,2.0,-9.0,-3132.0,1137.0,524.0,-169.0
25.0,34.0,37.0,-47.0,-4000.0,766.0,449.0,-136.0
39.0,-18.0,95.0,-73.0,-4000.0,380.0,294.0,-128.0
64.0,-67.0,95.0,-55.0,-4000.0,39.0,529.0,-105.0
160.0,-118.0,107.0,-59.0,-4000.0,29.0,738.0,-89.0
471.0,-233.0,92.0,-52.0,-4000.0,-268.0,962.0,-61.0
827.0,-283.0,62.0,-36.0,-4000.0,-712.0,1158.0,-15.0
640.0,-242.0,85.0,-25.0,-4000.0,-1701.0,1164.0,-44.0
184.0,-128.0,65.0,-57.0,-3836.0,-2595.0,1004.0,-44.0
-62.0,-63.0,24.0,-34.0,-3963.0,-3270.0,661.0,-23.0
-331.0,-1.0,23.0,-41.0,-4000.0,-3624.0,396.0,-18.0
-476.0,70.0,40.0,-69.0,-4000.0,-3518.0,278.0,15.0
-518.0,74.0,14.0,-57.0,-3734.0,-3387.0,490.0,59.0
-518.0,12.0,-12.0,-81.0,-3127.0,-3117.0,759.0,93.0
-396.0,-10.0,-20.0,-50.0,-3001.0,-3104.0,954.0,92.0
-379.0,12.0,-28.0,-52.0,-2800.0,-3234.0,1033.0,107.0
-345.0,-220.0,-23.0,-36.0,-2531.0,-3579.0,999.0,134.0
-258.0,-369.0,-31.0,-18.0,-2105.0,-3579.0,1019.0,129.0
-208.0,-375.0,-55.0,-24.0,-1361.0,-3014.0,1027.0,139.0
-104.0,-336.0,-59.0,-12.0,-1052.0,-2386.0,954.0,152.0
4.0,-153.0,-61.0,1.0,-972.0,-2157.0,866.0,176.0
18.0,34.0,-37.0,7.0,-1398.0,-1988.0,897.0,176.0
34.0,494.0,-61.0,19.0,-1853.0,-770.0,988.0,224.0
-2.0,746.0,-37.0,-17.0,-1795.0,348.0,1070.0,302.0
13.0,621.0,-4.0,-22.0,-1552.0,725.0,1052.0,377.0
129.0,489.0,-24.0,-8.0,-1313.0,1018.0,767.0,522.0
109.0,253.0,-25.0,-44.0,-1267.0,1254.0,506.0,629.0
70.0,-62.0,-25.0,-30.0,-1247.0,1222.0,311.0,648.0
90.0,-248.0,-20.0,-17.0,-1313.0,1069.0,89.0,583.0
85.0,-227.0,-23.0,2.0,-1251.0,896.0,25.0,409.0
80.0,-224.0,-16.0,-3.0,-769.0,725.0,154.0,188.0
72.0,-136.0,-36.0,20.0,-261.0,921.0,-69.0,42.0
60.0,-145.0,-22.0,30.0,729.0,1083.0,-204.0,-108.0
58.0,-12.0,-20.0,6.0,2189.0,1254.0,24.0,-217.0
122.0,382.0,-36.0,7.0,3657.0,1466.0,-196.0,-262.0
116.0,693.0,-34.0,-18.0,4000.0,1601.0,-385.0,-297.0
66.0,817.0,-60.0,13.0,4000.0,1628.0,-485.0,-226.0
66.0,705.0,-63.0,26.0,4000.0,1531.0,-420.0,-156.0
15.0,518.0,-49.0,32.0,4000.0,1405.0,-510.0,-55.0
25.0,147.0,-41.0,40.0,4000.0,1405.0,-855.0,25.0
36.0,-175.0,-49.0,27.0,4000.0,1691.0,-1181.0,142.0
17.0,-300.0,-86.0,20.0,4000.0,1786.0,-1038.0,479.0
42.0,-343.0,-67.0,5.0,4000.0,1592.0,8.0,831.0
23.0,-357.0,-36.0,18.0,4000.0,1344.0,707.0,1117.0
4.0,-484.0,5.0,-4.0,4000.0,1140.0,962.0,1307.0
105.0,-223.0,69.0,24.0,4000.0,805.0,693.0,1346.0
118.0,18.0,30.0,25.0,4000.0,548.0,212.0,1306.0
1.0,-133.0,9.0,10.0,4000.0,271.0,299.0,1272.0
-3.0,-42.0,-16.0,6.0,4000.0,293.0,281.0,1221.0
-66.0,-154.0,15.0,-16.0,3789.0,738.0,22.0,1130.0
-118.0,-142.0,190.0,4.0,3150.0,1527.0,-189.0,955.0
-125.0,-64.0,546.0,4.0,2296.0,2177.0,-587.0,654.0
-126.0,-152.0,708.0,-11.0,1508.0,1722.0,-908.0,328.0
-104.0,-56.0,280.0,-3.0,859.0,998.0,-882.0,-59.0
-121.0,-72.0,-73.0,13.0,497.0,274.0,-664.0,-540.0
-85.0,-44.0,-297.0,-15.0,89.0,-442.0,-294.0,-1078.0
-77.0,-52.0,-408.0,-11.0,-374.0,-586.0,-28.0,-1469.0
-78.0,-60.0,-328.0,0.0,-751.0,-416.0,23.0,-1518.0
-48.0,-74.0,-282.0,3.0,-1572.0,-159.0,-39.0,-1058.0
-20.0,-89.0,-168.0,-23.0,-2537.0,-481.0,-121.0,-500.0
-44.0,-89.0,-86.0,-44.0,-3197.0,-741.0,-151.0,-455.0
-29.0,-122.0,13.0,-9.0,-3445.0,-71.0,22.0,-769.0
-12.0,-53.0,147.0,2.0,-3274.0,752.0,178.0,-1188.0
-23.0,13.0,205.0,-13.0,-3378.0,953.0,76.0,-1615.0
9.0,23.0,0.0,12.0,-3728.0,38.0,-59.0,-2004.0
31.0,-48.0,-200.0,38.0,-4000.0,-511.0,-221.0,-2376.0
28.0,-133.0,-292.0,14.0,-4000.0,64.0,-716.0,-2735.0
30.0,-62.0,-283.0,-8.0,-4000.0,433.0,-1370.0,-3073.0
53.0,30.0,-99.0,1.0,-4000.0,180.0,-1914.0,-3579.0
33.0,1.0,-96.0,1.0,-4000.0,-468.0,-2157.0,-4000.0
40.0,60.0,-67.0,-23.0,-4000.0,-810.0,-2080.0,-4000.0
48.0,46.0,-17.0,-15.0,-4000.0,-940.0,-2343.0,-3904.0
45.0,16.0,-9.0,-34.0,-4000.0,-1010.0,-2536.0,-3448.0
18.0,38.0,-14.0,-36.0,-4000.0,-1122.0,-2464.0,-2812.0
-12.0,4.0,-7.0,-33.0,-4000.0,-1688.0,-1513.0,-2347.0
-5.0,-1.0,100.0,-22.0,-4000.0,-2088.0,297.0,-1891.0
-18.0,9.0,77.0,11.0,-4000.0,-1205.0,1731.0,-1143.0
-14.0,20.0,-23.0,-16.0,-4000.0,-36.0,3151.0,-729.0
-11.0,-15.0,-90.0,-2.0,-4000.0,147.0,4000.0,-744.0
-11.0,-8.0,-106.0,28.0,-4000.0,-75.0,4000.0,-297.0
-17.0,7.0,-39.0,12.0,-4000.0,315.0,4000.0,-273.0
-23.0,54.0,152.0,16.0,-4000.0,1092.0,4000.0,-427.0
-23.0,87.0,299.0,16.0,-4000.0,1118.0,2712.0,804.0
-28.0,48.0,211.0,6.0,-3682.0,758.0,1388.0,1914.0
-12.0,37.0,-26.0,-24.0,-2726.0,325.0,1092.0,2575.0
14.0,56.0,-87.0,-13.0,-2139.0,455.0,1548.0,2948.0
27.0,87.0,47.0,3.0,-2159.0,396.0,1332.0,2966.0
45.0,82.0,172.0,-24.0,-2043.0,-409.0,303.0,3588.0
32.0,73.0,162.0,-9.0,-1666.0,-459.0,-424.0,3716.0
8.0,44.0,70.0,-22.0,-947.0,-20.0,-982.0,3766.0
17.0,25.0,-20.0,-34.0,100.0,170.0,-1730.0,3727.0
12.0,23.0,-140.0,-45.0,778.0,627.0,-2009.0,3586.0
12.0,22.0,-76.0,-67.0,1417.0,823.0,-2146.0,3527.0
5.0,-106.0,-74.0,-42.0,1518.0,-501.0,-2146.0,3782.0
8.0,-215.0,15.0,-21.0,1405.0,-991.0,-2093.0,4000.0
-10.0,-89.0,73.0,10.0,1734.0,145.0,-2311.0,4000.0
-34.0,-14.0,-129.0,30.0,1920.0,1140.0,-1822.0,4000.0
0.0,105.0,-42.0,-15.0,2378.0,2319.0,-1181.0,4000.0
-8.0,152.0,79.0,-43.0,3204.0,3148.0,-418.0,3832.0
-21.0,136.0,77.0,-28.0,3902.0,3264.0,-290.0,2819.0
-9.0,164.0,134.0,-4.0,4000.0,2759.0,-1071.0,1728.0
5.0,160.0,70.0,2.0,3606.0,1904.0,-1318.0,794.0
26.0,144.0,-81.0,20.0,3102.0,734.0,-982.0,71.0
27.0,140.0,-222.0,22.0,2578.0,-768.0,-359.0,-671.0
-1.0,103.0,-163.0,-7.0,2320.0,-1308.0,-355.0,-427.0
-13.0,22.0,-64.0,12.0,2695.0,-1396.0,-355.0,474.0
-20.0,-1.0,-154.0,-17.0,3837.0,-1168.0,88.0,-456.0
-25.0,-27.0,-178.0,-28.0,4000.0,-210.0,133.0,-1534.0
-16.0,-35.0,-122.0,-60.0,4000.0,283.0,-224.0,-2215.0
-37.0,-27.0,-65.0,-50.0,4000.0,268.0,-595.0,-2937.0
-19.0,-7.0,-20.0,-30.0,4000.0,596.0,-701.0,-3007.0
-13.0,27.0,-11.0,-48.0,4000.0,843.0,-982.0,-2876.0
-32.0,52.0,18.0,-18.0,4000.0,831.0,-1684.0,-2471.0
-82.0,74.0,56.0,-10.0,4000.0,1006.0,-1962.0,-2035.0
-105.0,222.0,207.0,-16.0,4000.0,896.0,-1551.0,-401.0
-118.0,209.0,211.0,-40.0,4000.0,902.0,-1454.0,1047.0
-144.0,-49.0,71.0,-36.0,4000.0,1026.0,-1397.0,1260.0
-136.0,-109.0,18.0,-44.0,4000.0,1083.0,-941.0,1468.0
-136.0,-193.0,-94.0,-62.0,1580.0,1258.0,170.0,1091.0
-111.0,-264.0,-171.0,-106.0,-4000.0,947.0,1019.0,876.0
-91.0,-192.0,-193.0,-120.0,-4000.0,571.0,1164.0,193.0
-42.0,-28.0,-149.0,-102.0,-4000.0,195.0,1539.0,-390.0
2.0,23.0,14.0,-143.0,-4000.0,-88.0,1410.0,-638.0
48.0,-163.0,198.0,-119.0,-4000.0,-92.0,871.0,-846.0
120.0,-273.0,256.0,-93.0,-4000.0,-358.0,824.0,-73.0
220.0,-200.0,119.0,-91.0,-4000.0,-450.0,749.0,563.0
321.0,-159.0,112.0,-72.0,-4000.0,-124.0,590.0,1156.0
204.0,-286.0,-23.0,-72.0,-4000.0,154.0,759.0,890.0
119.0,-299.0,-31.0,-50.0,-4000.0,-62.0,793.0,-553.0
41.0,-318.0,115.0,-85.0,-2139.0,-268.0,734.0,-1526.0
-120.0,-247.0,-160.0,-83.0,2745.0,22.0,529.0,-1279.0
-167.0,-112.0,-125.0,-57.0,4000.0,91.0,529.0,-1200.0
-424.0,-32.0,52.0,-61.0,4000.0,6.0,714.0,-2583.0
-842.0,95.0,33.0,-15.0,4000.0,-67.0,791.0,-4000.0
-608.0,290.0,63.0,11.0,4000.0,-280.0,878.0,-3759.0
52.0,518.0,134.0,33.0,4000.0,-620.0,603.0,-2556.0
395.0,602.0,96.0,66.0,4000.0,-767.0,172.0,-1984.0
719.0,599.0,-80.0,93.0,4000.0,-875.0,-4.0,-1511.0
713.0,443.0,-218.0,116.0,4000.0,-1184.0,-194.0,-1762.0
392.0,205.0,-144.0,142.0,4000.0,-1265.0,-394.0,-2022.0
99.0,-7.0,62.0,164.0,4000.0,-1265.0,-287.0,-1951.0
-183.0,-114.0,349.0,140.0,4000.0,-1396.0,-279.0,-2784.0
-272.0,-196.0,1041.0,133.0,1930.0,-1569.0,-603.0,-2605.0
-296.0,-282.0,1322.0,120.0,330.0,-1570.0,-876.0,-1644.0
-253.0,-292.0,722.0,84.0,665.0,-1452.0,-216.0,-213.0
-278.0,-208.0,35.0,43.0,2190.0,-1383.0,1249.0,1403.0
-190.0,-167.0,-448.0,-15.0,2943.0,-1314.0,1266.0,1663.0
-227.0,-162.0,-628.0,-54.0,3020.0,-1115.0,523.0,1502.0
-271.0,-153.0,-472.0,-48.0,2825.0,-928.0,441.0,442.0
-113.0,-129.0,-86.0,10.0,2160.0,-875.0,223.0,-627.0
21.0,-1.0,400.0,11.0,1182.0,-620.0,-34.0,-948.0
150.0,17.0,437.0,15.0,-253.0,-375.0,-672.0,-947.0
201.0,-31.0,-14.0,-28.0,-596.0,-226.0,-1246.0,36.0
287.0,-227.0,-547.0,-145.0,1227.0,-219.0,-1038.0,1053.0
315.0,-303.0,-1150.0,-161.0,2441.0,-423.0,-745.0,1272.0
260.0,-91.0,-1345.0,-72.0,1669.0,-644.0,-401.0,742.0
82.0,-57.0,-672.0,20.0,-332.0,-802.0,155.0,-223.0
-25.0,37.0,-297.0,-10.0,-1685.0,-1005.0,542.0,-1208.0
36.0,300.0,16.0,-73.0,-2406.0,-1396.0,445.0,-1194.0
-12.0,666.0,374.0,-104.0,-3315.0,-1699.0,464.0,760.0
-2.0,917.0,319.0,-107.0,-4000.0,-1800.0,496.0,2835.0
107.0,550.0,146.0,-106.0,-4000.0,-1682.0,210.0,3896.0
102.0,-39.0,-64.0,-88.0,-4000.0,-1396.0,642.0,4000.0
25.0,-509.0,12.0,-43.0,-4000.0,-1183.0,1410.0,4000.0
12.0,-875.0,-22.0,-46.0,-4000.0,-1032.0,1670.0,4000.0
-12.0,-836.0,-198.0,-23.0,-4000.0,-1032.0,1406.0,4000.0
-6.0,-549.0,-365.0,44.0,-4000.0,-861.0,1667.0,4000.0
-50.0,-413.0,-450.0,47.0,-4000.0,-143.0,2684.0,4000.0
-79.0,-444.0,-102.0,18.0,-4000.0,1051.0,3009.0,4000.0
-94.0,-533.0,31.0,-19.0,-4000.0,1531.0,2619.0,4000.0
-93.0,-340.0,-154.0,20.0,-4000.0,1183.0,1656.0,4000.0
-17.0,36.0,-350.0,85.0,-4000.0,738.0,604.0,4000.0
-24.0,282.0,-274.0,104.0,-4000.0,-127.0,50.0,4000.0
-21.0,542.0,349.0,178.0,-4000.0,-838.0,-24.0,4000.0
-16.0,811.0,577.0,209.0,-4000.0,-1461.0,-442.0,3910.0
58.0,837.0,523.0,162.0,-4000.0,-2138.0,-1113.0,1793.0
137.0,868.0,415.0,116.0,-4000.0,-2504.0,-902.0,-127.0
81.0,933.0,828.0,20.0,-4000.0,-2791.0,-507.0,-1148.0
-24.0,1162.0,2410.0,-64.0,-4000.0,-2983.0,791.0,-2193.0
-88.0,1618.0,2213.0,-75.0,-4000.0,-3128.0,3860.0,-1921.0
-128.0,1461.0,250.0,-71.0,-3445.0,-2922.0,4000.0,-1429.0
-101.0,1051.0,-512.0,-18.0,-2484.0,-2138.0,1787.0,-1319.0
-25.0,-98.0,-1166.0,-45.0,-1398.0,-940.0,1996.0,-758.0
-50.0,-928.0,-362.0,-124.0,-1117.0,602.0,1825.0,136.0
-141.0,-1155.0,2083.0,-112.0,-782.0,2485.0,-731.0,1057.0
-189.0,-1546.0,3054.0,22.0,88.0,4000.0,-2776.0,2094.0
-114.0,-1472.0,1062.0,232.0,1627.0,4000.0,-3660.0,2754.0
-132.0,-1552.0,-1398.0,264.0,3020.0,4000.0,-3834.0,3796.0
-162.0,-1246.0,-2464.0,161.0,4000.0,4000.0,-4000.0,3976.0
-79.0,-1002.0,-3689.0,66.0,4000.0,4000.0,-4000.0,2419.0
54.0,-423.0,-3926.0,-36.0,4000.0,4000.0,-4000.0,474.0
113.0,290.0,-3550.0,-148.0,4000.0,4000.0,-4000.0,-1339.0
96.0,511.0,-2627.0,-168.0,4000.0,4000.0,-4000.0,-2876.0
86.0,802.0,-1720.0,-97.0,4000.0,4000.0,-4000.0,-4000.0
65.0,517.0,-601.0,-76.0,4000.0,4000.0,-4000.0,-4000.0
56.0,329.0,598.0,-91.0,4000.0,3604.0,-2571.0,-4000.0
18.0,256.0,944.0,-188.0,4000.0,2189.0,-1096.0,-4000.0
15.0,179.0,1106.0,-173.0,4000.0,1227.0,738.0,-4000.0
32.0,162.0,-247.0,-29.0,4000.0,758.0,2033.0,-4000.0
48.0,199.0,-318.0,16.0,4000.0,506.0,2579.0,-4000.0
36.0,212.0,923.0,62.0,4000.0,282.0,2712.0,-4000.0
0.0,247.0,751.0,54.0,4000.0,25.0,2826.0,-4000.0
-35.0,420.0,118.0,-36.0,3733.0,-175.0,1996.0,-4000.0
-69.0,640.0,60.0,-62.0,766.0,-419.0,1899.0,-4000.0
-104.0,982.0,217.0,-72.0,2630.0,-391.0,2746.0,-4000.0
-154.0,1423.0,589.0,-113.0,4000.0,-220.0,2944.0,-4000.0
-108.0,1193.0,846.0,-164.0,3493.0,-244.0,3103.0,-4000.0
-104.0,550.0,663.0,-145.0,342.0,-287.0,3411.0,-4000.0
-62.0,327.0,722.0,-62.0,-1234.0,-354.0,4000.0,-4000.0
46.0,57.0,2715.0,-16.0,-2063.0,-555.0,4000.0,-4000.0
139.0,87.0,4000.0,4.0,-4000.0,-856.0,4000.0,-4000.0
143.0,-696.0,2548.0,-3.0,-4000.0,-1183.0,4000.0,-3047.0
46.0,-1310.0,1574.0,-14.0,-4000.0,-1505.0,4000.0,-1709.0
23.0,-1008.0,2160.0,47.0,-4000.0,-1734.0,4000.0,-537.0
-39.0,-1389.0,24.0,77.0,-3443.0,-1943.0,4000.0,308.0
-104.0,-1619.0,2160.0,35.0,-3767.0,-2119.0,3542.0,1091.0
-201.0,-1061.0,4000.0,-54.0,-3379.0,-2221.0,1418.0,1848.0
-223.0,-614.0,4000.0,-101.0,-3868.0,-2510.0,1288.0,2819.0
-142.0,-1025.0,-1581.0,-65.0,-3917.0,-2839.0,2322.0,3996.0
-71.0,-1507.0,-4000.0,-73.0,-2935.0,-3048.0,2309.0,4000.0
3.0,-1546.0,-4000.0,-76.0,-2187.0,-3104.0,1704.0,4000.0
23.0,-1737.0,-3030.0,-65.0,-1116.0,-3039.0,812.0,3741.0
77.0,-1537.0,-3550.0,15.0,-679.0,-2998.0,-27.0,3458.0
56.0,-478.0,-3604.0,-54.0,215.0,-2932.0,-435.0,3390.0
31.0,314.0,253.0,-99.0,953.0,-2884.0,348.0,3535.0
6.0,1843.0,-2267.0,62.0,1071.0,-2803.0,1467.0,3673.0
-53.0,4000.0,-3718.0,87.0,1898.0,-2797.0,1223.0,3523.0
-120.0,4000.0,-4000.0,112.0,2360.0,-2932.0,619.0,3356.0
-144.0,4000.0,-4000.0,77.0,2943.0,-3063.0,-489.0,3198.0
-144.0,3702.0,-4000.0,62.0,3877.0,-3193.0,-2146.0,3393.0
-128.0,-829.0,-71.0,45.0,4000.0,-3169.0,-3059.0,3263.0
-67.0,-4000.0,4000.0,-136.0,3204.0,-2867.0,-3752.0,2999.0
-21.0,-4000.0,4000.0,-219.0,2224.0,-2392.0,-4000.0,2624.0
73.0,-4000.0,2681.0,-187.0,1032.0,-1831.0,-4000.0,2543.0
214.0,-4000.0,-1862.0,-160.0,-386.0,-1316.0,-4000.0,2497.0
393.0,-4000.0,-4000.0,-102.0,-1784.0,-771.0,-4000.0,2248.0
522.0,-2203.0,-3783.0,-37.0,-2486.0,-226.0,-4000.0,2119.0
393.0,508.0,917.0,11.0,-902.0,183.0,-4000.0,1623.0
118.0,2168.0,1387.0,42.0,-681.0,293.0,-4000.0,1308.0
-15.0,2039.0,-1087.0,-2.0,-1390.0,471.0,-4000.0,1136.0
-70.0,1193.0,-1041.0,-100.0,-913.0,758.0,-4000.0,1467.0
-59.0,489.0,-739.0,-168.0,-942.0,961.0,-2405.0,2094.0
-16.0,343.0,-2073.0,-121.0,-853.0,1292.0,-873.0,2380.0
-52.0,556.0,-1878.0,72.0,-90.0,1572.0,-251.0,2510.0
-20.0,-77.0,-46.0,260.0,1824.0,1590.0,-1303.0,3002.0
66.0,388.0,-1348.0,301.0,2955.0,1669.0,-2687.0,3226.0
98.0,1608.0,-2744.0,199.0,249.0,1994.0,-2028.0,3404.0
30.0,2867.0,-799.0,71.0,-2187.0,2189.0,-992.0,3782.0
16.0,3789.0,2146.0,12.0,-1918.0,2289.0,-35.0,3275.0
-23.0,3600.0,2832.0,39.0,-1756.0,2254.0,1379.0,2283.0
-79.0,1517.0,1414.0,-19.0,-2507.0,1799.0,2426.0,961.0
-58.0,-42.0,1029.0,-120.0,-4000.0,1214.0,2440.0,593.0
-114.0,-1090.0,-552.0,-178.0,-3917.0,654.0,1734.0,1663.0
-52.0,-2015.0,-971.0,-105.0,-2688.0,433.0,903.0,2677.0
143.0,-2294.0,-1415.0,-1.0,-2806.0,217.0,400.0,2624.0
214.0,-2417.0,-1101.0,-1.0,-1918.0,28.0,563.0,3487.0
61.0,-2139.0,2600.0,22.0,-767.0,138.0,738.0,4000.0
-45.0,-854.0,4000.0,-61.0,-993.0,250.0,702.0,4000.0
-70.0,1843.0,4000.0,-130.0,-2578.0,283.0,714.0,4000.0
-148.0,1738.0,2345.0,-120.0,-2436.0,283.0,1027.0,4000.0
-132.0,-1.0,4000.0,-78.0,-180.0,335.0,2112.0,4000.0
-189.0,-836.0,4000.0,45.0,288.0,485.0,3398.0,4000.0
-144.0,-1472.0,450.0,48.0,-3655.0,749.0,3708.0,4000.0
27.0,-1155.0,-1549.0,-127.0,-3575.0,880.0,3233.0,4000.0
145.0,-856.0,-628.0,-212.0,1018.0,1123.0,3038.0,4000.0
163.0,-505.0,-2607.0,-220.0,-121.0,1248.0,2684.0,4000.0
127.0,-150.0,-2870.0,-213.0,843.0,1279.0,2061.0,4000.0
155.0,53.0,-3242.0,-226.0,2176.0,1525.0,2036.0,4000.0
149.0,817.0,-3372.0,-169.0,-631.0,1604.0,2505.0,3141.0
18.0,1331.0,-2175.0,-52.0,-2578.0,1787.0,3009.0,2171.0
-39.0,876.0,-1348.0,-85.0,-4000.0,1710.0,3021.0,1567.0
-70.0,536.0,-814.0,-11.0,-4000.0,1183.0,2514.0,2754.0
-190.0,373.0,-1166.0,136.0,-4000.0,1018.0,2321.0,1850.0
-230.0,327.0,169.0,207.0,-4000.0,1077.0,1658.0,-753.0
-258.0,294.0,695.0,240.0,-4000.0,1136.0,693.0,-4000.0
-238.0,238.0,1233.0,144.0,-4000.0,929.0,-63.0,-4000.0
-321.0,355.0,2474.0,112.0,-4000.0,118.0,-672.0,-4000.0
-706.0,400.0,3173.0,156.0,-4000.0,-159.0,-704.0,-2722.0
-734.0,530.0,3497.0,158.0,-2870.0,-50.0,-933.0,-3007.0
-150.0,599.0,2483.0,104.0,1006.0,-210.0,-1332.0,-3203.0
176.0,631.0,1364.0,62.0,-1174.0,-252.0,-1454.0,-1774.0
399.0,607.0,533.0,81.0,-3148.0,-251.0,-1445.0,-2050.0
586.0,607.0,163.0,25.0,-2757.0,-448.0,-585.0,-1274.0
452.0,594.0,1387.0,-106.0,-2159.0,-642.0,1723.0,-1036.0
267.0,502.0,4000.0,-158.0,-2181.0,-638.0,4000.0,-301.0
49.0,200.0,3561.0,-119.0,-2409.0,-771.0,4000.0,-386.0
-70.0,151.0,-1473.0,-116.0,-1077.0,-1027.0,4000.0,-555.0
-152.0,460.0,-4000.0,-95.0,-90.0,-1010.0,2956.0,-534.0
-131.0,406.0,-4000.0,33.0,1051.0,-1186.0,1418.0,-843.0
-152.0,-57.0,-4000.0,77.0,2225.0,-1182.0,296.0,-101.0
-144.0,-438.0,-4000.0,80.0,2513.0,-867.0,119.0,1519.0
-83.0,-456.0,-3933.0,97.0,2556.0,-938.0,114.0,4000.0
-20.0,-258.0,-2463.0,34.0,2320.0,-1140.0,299.0,4000.0
21.0,-521.0,-1297.0,25.0,244.0,-1322.0,284.0,4000.0
14.0,-1206.0,787.0,30.0,-1833.0,-1518.0,-113.0,4000.0
39.0,-1546.0,638.0,26.0,-1833.0,-1766.0,-477.0,3458.0
63.0,-1667.0,125.0,81.0,-2806.0,-1831.0,-664.0,-370.0
14.0,-1252.0,533.0,55.0,-3817.0,-1896.0,-685.0,-4000.0
-40.0,-946.0,785.0,-41.0,-2116.0,-1847.0,-966.0,-4000.0
60.0,-811.0,976.0,-93.0,125.0,-1558.0,-1005.0,-4000.0
106.0,-553.0,1133.0,-85.0,-413.0,-1607.0,-791.0,-4000.0
90.0,381.0,573.0,-56.0,-3107.0,-1686.0,-811.0,-4000.0
25.0,1181.0,24.0,-87.0,-4000.0,-1699.0,-876.0,-4000.0
-2.0,549.0,-68.0,-119.0,-2935.0,-1766.0,-1051.0,-2493.0
7.0,290.0,-47.0,-56.0,-2549.0,-1747.0,-1206.0,-2741.0
-39.0,328.0,408.0,-23.0,-1094.0,-1847.0,-1233.0,-4000.0
-21.0,193.0,968.0,-37.0,2189.0,-1792.0,-1291.0,-4000.0
-79.0,72.0,1068.0,-34.0,2378.0,-1709.0,-1636.0,-4000.0
-103.0,-8.0,1041.0,19.0,1995.0,-1650.0,-1572.0,-883.0
-53.0,69.0,988.0,-5.0,1865.0,-1446.0,-1234.0,-427.0
-95.0,70.0,838.0,-26.0,1769.0,-1330.0,-1315.0,1895.0
-156.0,63.0,793.0,-7.0,1201.0,-1135.0,-1189.0,4000.0
-131.0,62.0,577.0,22.0,2556.0,-890.0,-1035.0,4000.0
-78.0,269.0,517.0,77.0,3794.0,-615.0,-1071.0,4000.0
-51.0,400.0,366.0,118.0,3660.0,-393.0,-1071.0,1346.0
-43.0,276.0,290.0,129.0,3903.0,-220.0,-998.0,-1723.0
-31.0,395.0,258.0,144.0,3729.0,-84.0,-876.0,-4000.0
-11.0,512.0,166.0,298.0,4000.0,-205.0,-876.0,-2676.0
39.0,598.0,126.0,583.0,4000.0,-172.0,-929.0,-1078.0
127.0,849.0,16.0,490.0,4000.0,445.0,-986.0,890.0
126.0,1504.0,14.0,18.0,4000.0,1214.0,-826.0,3014.0
93.0,2168.0,-28.0,-210.0,4000.0,1279.0,-489.0,751.0
110.0,1331.0,-30.0,-390.0,3837.0,1148.0,-522.0,-932.0
56.0,172.0,-75.0,-343.0,2842.0,1462.0,-565.0,-3850.0
-64.0,-171.0,-102.0,-247.0,2825.0,1474.0,-448.0,-4000.0
-131.0,118.0,-110.0,-301.0,3527.0,2240.0,-417.0,-557.0
-59.0,41.0,-111.0,-184.0,4000.0,3491.0,-147.0,595.0
73.0,-1212.0,-128.0,-75.0,4000.0,3149.0,120.0,-1904.0
79.0,-2267.0,-157.0,55.0,4000.0,2060.0,303.0,-4000.0
82.0,-2548.0,-120.0,242.0,4000.0,1601.0,223.0,-4000.0
68.0,-1204.0,-138.0,949.0,4000.0,1482.0,93.0,-4000.0
-3.0,-404.0,-149.0,1184.0,4000.0,1136.0,15.0,-3244.0
30.0,-1509.0,-180.0,915.0,4000.0,1189.0,-79.0,-1208.0
-4.0,-1932.0,-180.0,751.0,4000.0,1279.0,109.0,1399.0
-9.0,-1212.0,-104.0,-276.0,3853.0,1157.0,124.0,1541.0
4.0,-505.0,2.0,-458.0,2630.0,1092.0,104.0,3404.0
-1.0,-139.0,-15.0,-371.0,2047.0,1012.0,200.0,4000.0
-20.0,43.0,-44.0,-766.0,1604.0,1118.0,236.0,4000.0
-40.0,122.0,-40.0,-959.0,1222.0,1083.0,152.0,4000.0
-2.0,298.0,-114.0,-833.0,180.0,994.0,116.0,3067.0
9.0,412.0,-159.0,-306.0,-7.0,888.0,178.0,1663.0
-1.0,598.0,-243.0,-741.0,18.0,1018.0,250.0,154.0
3.0,686.0,-383.0,-1370.0,-16.0,860.0,412.0,-1148.0
-28.0,594.0,-515.0,-1589.0,-176.0,758.0,425.0,-875.0
-48.0,508.0,-502.0,-1536.0,-421.0,947.0,474.0,659.0
-17.0,451.0,-385.0,-1027.0,-348.0,784.0,577.0,2367.0
-27.0,412.0,-393.0,-584.0,-1137.0,616.0,622.0,2078.0
-20.0,382.0,-315.0,-414.0,-1432.0,506.0,619.0,1045.0
15.0,345.0,-177.0,-143.0,-1292.0,586.0,576.0,1346.0
12.0,276.0,-158.0,-113.0,-2277.0,183.0,470.0,2572.0
-11.0,273.0,54.0,248.0,-2057.0,-289.0,380.0,3144.0
3.0,248.0,217.0,626.0,-335.0,231.0,319.0,1728.0
12.0,229.0,231.0,668.0,556.0,622.0,168.0,-479.0
33.0,212.0,272.0,960.0,406.0,693.0,216.0,-34.0
33.0,198.0,385.0,906.0,375.0,831.0,220.0,1150.0
27.0,205.0,592.0,882.0,265.0,608.0,91.0,745.0
45.0,225.0,642.0,891.0,-862.0,520.0,83.0,2118.0
10.0,309.0,671.0,849.0,-827.0,415.0,151.0,4000.0
36.0,347.0,624.0,1444.0,-537.0,445.0,235.0,4000.0
44.0,258.0,272.0,2404.0,-818.0,620.0,155.0,1325.0
3.0,111.0,-60.0,1816.0,-583.0,597.0,21.0,-1111.0
-12.0,135.0,-189.0,577.0,-248.0,654.0,-10.0,-2682.0
-29.0,89.0,-401.0,-111.0,-28.0,466.0,-124.0,-3862.0
3.0,-48.0,-811.0,-914.0,273.0,119.0,-211.0,-4000.0
-89.0,-383.0,-1211.0,-1231.0,849.0,-189.0,10.0,-4000.0
-185.0,-440.0,-1264.0,-1435.0,961.0,-349.0,105.0,-4000.0
-131.0,-105.0,-1036.0,-1722.0,1604.0,-188.0,70.0,-4000.0
-82.0,112.0,-827.0,-1722.0,1970.0,-34.0,220.0,-4000.0
-20.0,-7.0,-546.0,-1297.0,2048.0,-175.0,146.0,-744.0
-41.0,-456.0,-445.0,-870.0,2568.0,-67.0,89.0,4000.0
-41.0,-345.0,-283.0,-690.0,2556.0,54.0,25.0,4000.0
20.0,-253.0,-31.0,-365.0,2581.0,33.0,-172.0,4000.0
-1.0,-179.0,140.0,102.0,2556.0,-27.0,-185.0,4000.0
0.0,-63.0,449.0,424.0,2491.0,-507.0,-127.0,3393.0
71.0,20.0,502.0,472.0,2294.0,-541.0,-152.0,1468.0
104.0,263.0,450.0,655.0,2231.0,-521.0,-159.0,470.0
21.0,81.0,345.0,728.0,2254.0,-786.0,21.0,556.0
3.0,-27.0,419.0,467.0,1992.0,-530.0,170.0,686.0
-3.0,-57.0,556.0,240.0,1644.0,-268.0,-91.0,1134.0
17.0,57.0,362.0,455.0,1163.0,-169.0,-420.0,1326.0
53.0,-7.0,178.0,850.0,918.0,262.0,-393.0,538.0
10.0,-19.0,140.0,2022.0,651.0,290.0,-428.0,397.0
12.0,-22.0,260.0,3556.0,399.0,183.0,-433.0,82.0
18.0,-40.0,217.0,2657.0,182.0,-142.0,-469.0,241.0
20.0,21.0,59.0,967.0,94.0,-641.0,-481.0,-321.0
-37.0,-77.0,-30.0,72.0,-101.0,51.0,-408.0,-1208.0
-266.0,-43.0,64.0,-849.0,-404.0,867.0,-320.0,-844.0
-443.0,-120.0,21.0,-2017.0,-486.0,902.0,-122.0,491.0
-327.0,-86.0,-205.0,-2924.0,-679.0,415.0,-16.0,621.0
-150.0,-92.0,-288.0,-2924.0,-934.0,-42.0,85.0,-382.0
40.0,-74.0,-187.0,-2349.0,-1259.0,58.0,59.0,69.0
235.0,-33.0,-48.0,-1350.0,-1371.0,404.0,126.0,588.0
328.0,11.0,93.0,-1240.0,-1398.0,-1.0,126.0,-2050.0
333.0,71.0,243.0,-1589.0,-1528.0,-555.0,39.0,-4000.0
277.0,40.0,47.0,-1435.0,-1504.0,-1038.0,-23.0,-3773.0
202.0,68.0,12.0,-1154.0,-1635.0,-2054.0,-314.0,-4000.0
145.0,33.0,-66.0,-689.0,-1853.0,-940.0,-522.0,-4000.0
95.0,-27.0,-157.0,54.0,-2170.0,554.0,-440.0,-1105.0
-49.0,-110.0,-17.0,879.0,-2419.0,1051.0,-247.0,1924.0
-221.0,-94.0,53.0,1424.0,-2741.0,1628.0,-136.0,2095.0
-323.0,-46.0,284.0,2046.0,-3148.0,550.0,-97.0,4000.0
-217.0,33.0,455.0,2465.0,-3327.0,-338.0,-143.0,4000.0
-51.0,152.0,396.0,1786.0,-3456.0,-403.0,-182.0,4000.0
-28.0,209.0,316.0,728.0,-3575.0,-985.0,-188.0,1437.0
-12.0,227.0,337.0,891.0,-3572.0,-2773.0,-125.0,1859.0
8.0,227.0,284.0,2270.0,-3262.0,-3275.0,-37.0,1924.0
-8.0,206.0,100.0,2512.0,-3148.0,-3864.0,40.0,1818.0
-168.0,135.0,-203.0,603.0,-3197.0,-4000.0,60.0,1272.0
-548.0,102.0,-572.0,-768.0,-3172.0,-2091.0,3.0,478.0
-631.0,93.0,-802.0,-1136.0,-3303.0,-480.0,-28.0,241.0
-490.0,10.0,-1192.0,-1675.0,-2921.0,246.0,31.0,-260.0
-605.0,-99.0,-1257.0,-1621.0,-2650.0,1247.0,138.0,-18.0
-174.0,-120.0,-739.0,-1565.0,-2578.0,2888.0,156.0,236.0
361.0,-160.0,-694.0,-1552.0,-2451.0,3725.0,146.0,522.0
503.0,-142.0,-515.0,-1070.0,-2238.0,4000.0,152.0,-92.0
495.0,-101.0,-280.0,-652.0,-2081.0,4000.0,172.0,-528.0
371.0,-65.0,-53.0,-169.0,-1918.0,2971.0,183.0,-449.0
408.0,14.0,382.0,85.0,-1820.0,40.0,183.0,-618.0
287.0,28.0,526.0,613.0,-1731.0,-802.0,220.0,-553.0
208.0,22.0,663.0,988.0,-1572.0,-816.0,123.0,-669.0
107.0,24.0,589.0,972.0,-1442.0,-2235.0,-22.0,-685.0
-102.0,12.0,450.0,923.0,-1398.0,-1119.0,-50.0,-602.0
-1011.0,-43.0,259.0,581.0,-1666.0,2319.0,-48.0,-273.0
-1996.0,-49.0,140.0,419.0,-1609.0,2759.0,-48.0,-166.0
-974.0,-42.0,89.0,193.0,-1528.0,2124.0,-24.0,-59.0
163.0,-68.0,-123.0,-72.0,-1247.0,831.0,105.0,95.0
935.0,-121.0,-88.0,-6.0,-1194.0,-1096.0,246.0,83.0
1832.0,-97.0,105.0,245.0,-2029.0,-2235.0,352.0,141.0
1822.0,-70.0,368.0,472.0,-2530.0,-2469.0,457.0,65.0
1572.0,-59.0,343.0,386.0,-2935.0,-1192.0,498.0,131.0
955.0,-27.0,-190.0,-113.0,-3444.0,1994.0,523.0,169.0
418.0,-93.0,-381.0,-409.0,-3391.0,2629.0,627.0,220.0
78.0,-110.0,-242.0,-178.0,-3186.0,1488.0,658.0,255.0
-144.0,-59.0,-122.0,-34.0,-2512.0,1128.0,628.0,286.0
-220.0,14.0,-126.0,-238.0,-1915.0,439.0,603.0,314.0
-258.0,90.0,-320.0,-393.0,-1588.0,-1672.0,384.0,340.0
-311.0,117.0,-429.0,-265.0,-1142.0,-3684.0,78.0,369.0
-379.0,152.0,-466.0,-98.0,-797.0,-2863.0,-371.0,438.0
-300.0,162.0,-263.0,-40.0,-72.0,-2712.0,-685.0,584.0
-309.0,142.0,-14.0,-49.0,480.0,-3583.0,-791.0,434.0
-273.0,41.0,272.0,-52.0,307.0,-2928.0,-745.0,414.0
-274.0,-68.0,372.0,-188.0,-34.0,-2337.0,-664.0,369.0
-323.0,-103.0,206.0,-285.0,-299.0,-1847.0,-615.0,131.0
-288.0,-79.0,113.0,-283.0,-295.0,76.0,-442.0,55.0
-286.0,-162.0,-77.0,-206.0,688.0,-107.0,-314.0,38.0
-323.0,-236.0,186.0,34.0,2485.0,-1049.0,-114.0,84.0
-266.0,-130.0,502.0,72.0,4000.0,-1532.0,88.0,6.0
-288.0,-95.0,311.0,-146.0,3493.0,-3117.0,227.0,-87.0
-288.0,-53.0,270.0,-187.0,2556.0,-3624.0,365.0,-144.0
-213.0,8.0,195.0,-83.0,2578.0,-3234.0,380.0,-258.0
-188.0,8.0,-47.0,-326.0,2100.0,-1799.0,309.0,-362.0
-168.0,51.0,-126.0,-486.0,2320.0,-586.0,254.0,-228.0
-303.0,81.0,126.0,-110.0,2254.0,311.0,203.0,-76.0
-370.0,9.0,385.0,142.0,2243.0,1214.0,336.0,-223.0
-523.0,-66.0,207.0,-25.0,2502.0,1344.0,669.0,-220.0
-844.0,43.0,-59.0,-285.0,2556.0,660.0,726.0,-260.0
-1027.0,122.0,-42.0,-165.0,2254.0,-8.0,678.0,-334.0
-1072.0,95.0,47.0,66.0,1473.0,441.0,563.0,-327.0
-331.0,98.0,72.0,122.0,870.0,738.0,433.0,-370.0
464.0,51.0,202.0,210.0,59.0,1163.0,368.0,-232.0
986.0,43.0,184.0,238.0,36.0,1142.0,249.0,-156.0
1475.0,53.0,284.0,309.0,143.0,684.0,242.0,-90.0
1429.0,34.0,372.0,290.0,45.0,77.0,291.0,-111.0
1246.0,11.0,395.0,197.0,35.0,-409.0,274.0,-23.0
827.0,-11.0,402.0,49.0,-73.0,361.0,180.0,91.0
462.0,33.0,267.0,22.0,-52.0,961.0,214.0,96.0
184.0,18.0,158.0,-50.0,-175.0,1604.0,248.0,66.0
9.0,44.0,81.0,-153.0,-222.0,1136.0,329.0,-109.0
-75.0,110.0,181.0,-33.0,-21.0,207.0,464.0,-144.0
-190.0,156.0,331.0,199.0,379.0,-189.0,555.0,-266.0
-114.0,228.0,441.0,337.0,993.0,-702.0,628.0,-401.0
-113.0,258.0,533.0,487.0,1279.0,858.0,628.0,-512.0
-77.0,260.0,564.0,663.0,1398.0,1417.0,655.0,-606.0
-73.0,251.0,303.0,439.0,1734.0,1118.0,765.0,-692.0
-84.0,127.0,42.0,222.0,1796.0,1340.0,860.0,-692.0
-16.0,-125.0,-125.0,-61.0,1474.0,1148.0,702.0,-555.0
24.0,-190.0,-425.0,-423.0,790.0,1092.0,576.0,-455.0
-61.0,-195.0,-768.0,-735.0,19.0,366.0,551.0,-320.0
-180.0,-280.0,-694.0,-715.0,-318.0,-27.0,551.0,-211.0
-154.0,-271.0,-218.0,-255.0,-309.0,230.0,693.0,-77.0
-147.0,-176.0,-49.0,-55.0,-64.0,583.0,954.0,38.0
-226.0,-137.0,-32.0,-140.0,182.0,921.0,1259.0,147.0
-266.0,-84.0,-165.0,-344.0,342.0,1279.0,946.0,283.0
-309.0,-38.0,-258.0,-370.0,375.0,1340.0,181.0,357.0
-417.0,-57.0,-311.0,-527.0,199.0,1604.0,-202.0,456.0
-548.0,-51.0,-641.0,-979.0,-291.0,2224.0,-510.0,448.0
-493.0,-22.0,-971.0,-914.0,-738.0,2047.0,-876.0,449.0
-352.0,12.0,-711.0,-109.0,-1137.0,961.0,-1710.0,499.0
-266.0,33.0,-163.0,574.0,-1319.0,-226.0,-2405.0,499.0
-81.0,44.0,313.0,864.0,-1137.0,-982.0,-1991.0,426.0
92.0,51.0,394.0,1045.0,-1170.0,-1570.0,-1665.0,218.0
204.0,29.0,254.0,1287.0,-1776.0,-1511.0,-1587.0,-109.0
109.0,10.0,345.0,972.0,-2578.0,-1290.0,-1206.0,-443.0
-121.0,-23.0,124.0,-44.0,-3066.0,-1248.0,-1254.0,-627.0
-108.0,-26.0,-146.0,-537.0,-3192.0,-867.0,-1728.0,-627.0
113.0,-41.0,50.0,-594.0,-3182.0,-485.0,-2186.0,-685.0
346.0,-4.0,337.0,-510.0,-3132.0,22.0,-2311.0,-761.0
673.0,109.0,207.0,-580.0,-3182.0,548.0,-2017.0,-729.0
876.0,144.0,63.0,-436.0,-3182.0,854.0,-1796.0,-655.0
870.0,140.0,50.0,16.0,-3247.0,1227.0,-1332.0,-557.0
692.0,96.0,-75.0,515.0,-3661.0,1644.0,-685.0,-431.0
424.0,45.0,-585.0,329.0,-3734.0,1768.0,303.0,-211.0
228.0,30.0,-1339.0,-167.0,-3867.0,1799.0,1658.0,-40.0
-250.0,57.0,-1297.0,170.0,-3844.0,1666.0,3038.0,53.0
-620.0,58.0,-906.0,-29.0,-3687.0,1142.0,3838.0,195.0
-374.0,54.0,-429.0,-110.0,-3456.0,254.0,2696.0,409.0
-14.0,60.0,-31.0,-152.0,-2250.0,-546.0,1670.0,609.0
281.0,70.0,-6.0,-674.0,-877.0,-375.0,1575.0,621.0
595.0,80.0,123.0,-971.0,282.0,498.0,734.0,634.0
583.0,68.0,328.0,-782.0,1669.0,1287.0,78.0,532.0
315.0,23.0,436.0,-475.0,3215.0,1786.0,-856.0,318.0
-32.0,-7.0,253.0,-455.0,3837.0,2060.0,-2139.0,147.0
-282.0,30.0,112.0,-293.0,3346.0,2385.0,-3196.0,-18.0
-412.0,21.0,36.0,-381.0,2451.0,3101.0,-2314.0,-87.0
-575.0,16.0,142.0,-180.0,1227.0,3705.0,368.0,-162.0
-533.0,24.0,301.0,-143.0,612.0,3853.0,2114.0,-273.0
-323.0,-43.0,295.0,18.0,1352.0,4000.0,3347.0,-282.0
-311.0,-91.0,278.0,589.0,3558.0,3463.0,4000.0,-327.0
-1162.0,-106.0,383.0,569.0,4000.0,2353.0,4000.0,-392.0
-3550.0,-129.0,374.0,158.0,4000.0,1854.0,3708.0,-297.0
-4000.0,-141.0,251.0,48.0,4000.0,1071.0,3086.0,-189.0
-1735.0,-144.0,231.0,112.0,4000.0,-352.0,2420.0,-92.0
416.0,-143.0,229.0,170.0,4000.0,-2219.0,939.0,-43.0
2597.0,-142.0,389.0,538.0,4000.0,-4000.0,-901.0,21.0
3761.0,-112.0,390.0,681.0,4000.0,-4000.0,-2805.0,103.0
3573.0,-76.0,166.0,740.0,4000.0,-4000.0,-3082.0,106.0
2922.0,-75.0,-50.0,720.0,4000.0,-4000.0,-2610.0,74.0
1637.0,-100.0,-297.0,675.0,4000.0,-3179.0,-2158.0,37.0
914.0,-96.0,-641.0,120.0,4000.0,-3336.0,-790.0,-66.0
211.0,-76.0,-819.0,-594.0,4000.0,-3659.0,425.0,-97.0
-150.0,-60.0,-776.0,-715.0,390.0,-4000.0,1723.0,200.0
-415.0,-12.0,-481.0,-523.0,-2063.0,-4000.0,2647.0,459.0
-719.0,37.0,-110.0,598.0,-3119.0,-3840.0,2061.0,541.0
-909.0,87.0,215.0,1816.0,-3754.0,-3234.0,954.0,654.0
-936.0,87.0,590.0,2193.0,-3327.0,-2608.0,-298.0,784.0
-1001.0,70.0,401.0,1405.0,-2843.0,-2592.0,-538.0,634.0
-1068.0,63.0,95.0,325.0,-3132.0,-3895.0,-768.0,450.0
-824.0,111.0,-84.0,-206.0,-4000.0,-4000.0,-2121.0,489.0
-649.0,193.0,-135.0,-630.0,-4000.0,-3665.0,-3249.0,528.0
-441.0,223.0,-90.0,-487.0,-4000.0,-3275.0,-4000.0,745.0
-303.0,199.0,-226.0,-328.0,-4000.0,-2079.0,-4000.0,1071.0
-190.0,194.0,-128.0,-539.0,-4000.0,-541.0,-3920.0,1403.0
-177.0,135.0,158.0,-717.0,-4000.0,268.0,-2017.0,1533.0
-114.0,40.0,109.0,-1151.0,-4000.0,368.0,628.0,1392.0
-43.0,-15.0,-135.0,-1180.0,-4000.0,-113.0,-445.0,1248.0
-31.0,-94.0,-271.0,-1480.0,-2842.0,-481.0,-811.0,988.0
-51.0,-134.0,-490.0,-1728.0,-1782.0,-875.0,-12.0,564.0
-88.0,-154.0,-628.0,-1536.0,-1375.0,-448.0,-1169.0,60.0
-62.0,-212.0,-401.0,-1539.0,-967.0,163.0,-859.0,-188.0
-75.0,-326.0,-125.0,-914.0,-1383.0,823.0,-436.0,-366.0
-25.0,-359.0,238.0,-377.0,-2369.0,1604.0,-1652.0,-541.0
36.0,-236.0,520.0,91.0,-3446.0,1991.0,-2286.0,-723.0
81.0,-139.0,621.0,980.0,-4000.0,2319.0,-515.0,-853.0
-319.0,-85.0,722.0,1422.0,-4000.0,2877.0,684.0,-718.0
-551.0,-51.0,793.0,1730.0,-4000.0,3214.0,-201.0,-761.0
-182.0,25.0,692.0,1588.0,-4000.0,3345.0,-485.0,-809.0
-32.0,121.0,325.0,1302.0,-4000.0,3556.0,738.0,-769.0
538.0,146.0,218.0,1249.0,-4000.0,3835.0,1071.0,-788.0
1130.0,152.0,-26.0,1021.0,-4000.0,3604.0,-1136.0,-748.0
1234.0,168.0,-430.0,1249.0,-4000.0,3083.0,-3314.0,-606.0
1065.0,152.0,-702.0,1996.0,-4000.0,3148.0,-3314.0,-207.0
530.0,145.0,-490.0,2258.0,-4000.0,3018.0,-1637.0,31.0
256.0,160.0,-89.0,1053.0,-4000.0,2939.0,-1423.0,-175.0
-132.0,140.0,-52.0,-359.0,-4000.0,2759.0,-2221.0,-352.0
-136.0,159.0,95.0,-1145.0,-4000.0,2295.0,-1228.0,-105.0
137.0,105.0,6.0,-1787.0,-4000.0,1626.0,875.0,341.0
136.0,23.0,-22.0,-1919.0,-4000.0,693.0,2908.0,597.0
118.0,-94.0,-67.0,-1728.0,-2530.0,337.0,4000.0,312.0
-74.0,-199.0,72.0,-462.0,-973.0,-373.0,4000.0,-16.0
-209.0,-175.0,349.0,442.0,58.0,-1424.0,4000.0,-42.0
-273.0,-143.0,381.0,37.0,1163.0,-1794.0,3333.0,-54.0
-348.0,-62.0,354.0,-409.0,3476.0,-1701.0,2712.0,-27.0
-484.0,-29.0,160.0,-1207.0,4000.0,-1316.0,1208.0,-100.0
-361.0,-32.0,82.0,-1370.0,4000.0,-255.0,-946.0,-671.0
-70.0,41.0,-116.0,-1016.0,4000.0,273.0,-1950.0,-889.0
42.0,85.0,-154.0,-393.0,4000.0,-190.0,-2043.0,-708.0
36.0,102.0,-50.0,128.0,4000.0,-745.0,-1291.0,-928.0
145.0,121.0,-14.0,-162.0,4000.0,-1322.0,421.0,-889.0
180.0,82.0,1.0,-372.0,4000.0,-1387.0,2557.0,-482.0
313.0,48.0,-362.0,-580.0,4000.0,-1617.0,3683.0,-131.0
408.0,76.0,-507.0,-66.0,4000.0,-1747.0,3868.0,182.0
-16.0,127.0,-282.0,538.0,4000.0,-845.0,3773.0,564.0
285.0,212.0,-90.0,882.0,4000.0,58.0,3103.0,961.0
-213.0,251.0,-33.0,1021.0,4000.0,693.0,1004.0,1198.0
-1422.0,233.0,223.0,406.0,4000.0,1315.0,-2186.0,1325.0
-1081.0,217.0,401.0,-127.0,4000.0,1531.0,-2186.0,1272.0
-1475.0,168.0,180.0,-946.0,4000.0,1405.0,311.0,1077.0
-2155.0,81.0,-38.0,-1672.0,4000.0,1328.0,1731.0,825.0
-909.0,24.0,15.0,-1146.0,4000.0,1227.0,1770.0,629.0
745.0,-53.0,64.0,-1023.0,4000.0,559.0,1984.0,489.0
1173.0,-142.0,-234.0,-885.0,4000.0,-716.0,1931.0,390.0
473.0,-178.0,-218.0,-185.0,4000.0,-1053.0,1444.0,243.0
238.0,-159.0,-2.0,169.0,1254.0,-598.0,1315.0,206.0
-331.0,-88.0,121.0,695.0,-2405.0,-131.0,687.0,131.0
-886.0,-91.0,306.0,882.0,-4000.0,433.0,-101.0,-180.0
1559.0,-92.0,441.0,1059.0,-4000.0,76.0,-473.0,-163.0
2787.0,-27.0,318.0,832.0,-4000.0,44.0,-162.0,3.0
2545.0,64.0,20.0,150.0,-4000.0,1734.0,-1917.0,387.0
2480.0,30.0,-232.0,286.0,-4000.0,2809.0,-2740.0,609.0
973.0,-96.0,-44.0,645.0,-4000.0,1573.0,-3700.0,588.0
127.0,-91.0,69.0,-222.0,-4000.0,367.0,-4000.0,811.0
-547.0,-72.0,-144.0,-1021.0,-4000.0,-14.0,-4000.0,874.0
-719.0,-62.0,-116.0,-724.0,-4000.0,-19.0,-4000.0,831.0
-974.0,-49.0,-383.0,-817.0,-4000.0,586.0,-3903.0,450.0
-1162.0,-15.0,-454.0,-571.0,-4000.0,217.0,-287.0,-7.0
-1045.0,-19.0,-381.0,118.0,-4000.0,-162.0,4000.0,-370.0
-1195.0,-70.0,-167.0,568.0,-4000.0,-268.0,4000.0,-875.0
-896.0,-30.0,-133.0,655.0,-4000.0,-476.0,4000.0,-1339.0
-873.0,26.0,-137.0,767.0,-4000.0,-737.0,4000.0,-1762.0
-730.0,38.0,316.0,1249.0,-4000.0,-932.0,4000.0,-1803.0
-428.0,45.0,337.0,1340.0,-4000.0,-731.0,184.0,-1709.0
-303.0,73.0,234.0,1249.0,-4000.0,-901.0,-3833.0,-1381.0
-138.0,52.0,77.0,1033.0,-4000.0,-773.0,-4000.0,-797.0
-10.0,45.0,85.0,1020.0,-4000.0,-468.0,-4000.0,-111.0
82.0,-4.0,135.0,1444.0,-4000.0,-232.0,-4000.0,319.0
135.0,-45.0,3.0,1367.0,-4000.0,-186.0,-4000.0,344.0
116.0,17.0,61.0,1053.0,-4000.0,-273.0,-1533.0,26.0
147.0,-7.0,-30.0,164.0,-4000.0,-136.0,3103.0,-132.0
192.0,-3.0,-692.0,-885.0,-4000.0,122.0,4000.0,267.0
151.0,29.0,-776.0,-618.0,-4000.0,506.0,4000.0,286.0
-258.0,11.0,-157.0,-320.0,-4000.0,801.0,4000.0,74.0
-1457.0,0.0,-20.0,-784.0,-4000.0,854.0,3347.0,-215.0
-1240.0,1.0,-138.0,-1011.0,-4000.0,684.0,497.0,-221.0
492.0,8.0,-164.0,-810.0,-4000.0,589.0,-1583.0,-85.0
1246.0,30.0,-137.0,-677.0,-4000.0,536.0,-2610.0,-590.0
2002.0,28.0,-255.0,-669.0,-4000.0,406.0,-3236.0,-1269.0
1755.0,-12.0,-68.0,-776.0,-4000.0,136.0,-2571.0,-1762.0
648.0,-47.0,101.0,-1158.0,-4000.0,-132.0,-1684.0,-2442.0
843.0,-51.0,76.0,-1077.0,-4000.0,-350.0,-1128.0,-3219.0
986.0,-66.0,246.0,-472.0,-4000.0,-485.0,-555.0,-3462.0
1282.0,-107.0,268.0,-430.0,-4000.0,-464.0,620.0,-2617.0
1254.0,-144.0,306.0,-365.0,-4000.0,-334.0,759.0,-753.0
351.0,-135.0,317.0,-296.0,-3474.0,-255.0,875.0,718.0
-136.0,-118.0,408.0,-576.0,1140.0,-280.0,1011.0,1338.0
-307.0,-135.0,306.0,-279.0,4000.0,-352.0,1522.0,1586.0
-714.0,-74.0,190.0,500.0,4000.0,-289.0,655.0,1346.0
-1031.0,-44.0,212.0,569.0,4000.0,85.0,-127.0,1989.0
-1025.0,9.0,-54.0,-153.0,4000.0,217.0,302.0,2935.0
-1305.0,93.0,-306.0,-792.0,4000.0,311.0,-91.0,2675.0
-1430.0,92.0,-282.0,-888.0,4000.0,261.0,163.0,2742.0
-1283.0,147.0,39.0,76.0,4000.0,127.0,-206.0,1989.0
-1345.0,217.0,184.0,-36.0,4000.0,162.0,-901.0,-759.0
-1365.0,217.0,-168.0,-1011.0,4000.0,191.0,-789.0,-4000.0
-1031.0,227.0,-385.0,-589.0,4000.0,303.0,871.0,-4000.0
-268.0,172.0,-245.0,142.0,4000.0,113.0,2684.0,-4000.0
471.0,37.0,-48.0,1090.0,4000.0,-12.0,2890.0,-4000.0
717.0,12.0,191.0,1339.0,4000.0,-46.0,2631.0,-4000.0
608.0,-44.0,40.0,506.0,4000.0,-50.0,871.0,-4000.0
595.0,-88.0,-548.0,-650.0,4000.0,172.0,-1006.0,-4000.0
212.0,-106.0,-841.0,-818.0,4000.0,81.0,-2594.0,-4000.0
-258.0,-129.0,-116.0,773.0,-1442.0,-84.0,-3575.0,-4000.0
-915.0,-102.0,415.0,1167.0,-4000.0,-175.0,-2865.0,-4000.0
-1540.0,-92.0,89.0,675.0,-4000.0,-390.0,-2752.0,-4000.0
-1231.0,-63.0,202.0,428.0,-4000.0,-511.0,-1462.0,-4000.0
-383.0,-27.0,92.0,47.0,-4000.0,-541.0,1098.0,-4000.0
849.0,-5.0,71.0,272.0,-4000.0,-184.0,2191.0,-4000.0
1606.0,-65.0,246.0,406.0,-4000.0,33.0,1137.0,-4000.0
1743.0,-85.0,-78.0,-74.0,-4000.0,-202.0,95.0,-4000.0
1559.0,-55.0,-198.0,-314.0,-4000.0,-155.0,-26.0,-4000.0
870.0,-53.0,-61.0,-308.0,-4000.0,-354.0,172.0,-4000.0
312.0,-38.0,-109.0,-411.0,-4000.0,-342.0,734.0,-3462.0
-331.0,36.0,-151.0,-458.0,-4000.0,-514.0,897.0,-2380.0
-1045.0,95.0,6.0,-389.0,-3312.0,-1010.0,1098.0,-489.0
-1039.0,103.0,-19.0,-356.0,-1007.0,-1452.0,725.0,1346.0
-248.0,135.0,35.0,-336.0,692.0,-2534.0,120.0,3067.0
177.0,119.0,195.0,-255.0,1775.0,-2791.0,-613.0,4000.0
331.0,105.0,398.0,99.0,2581.0,-3117.0,-1096.0,4000.0
177.0,87.0,597.0,489.0,3216.0,-3978.0,-992.0,4000.0
56.0,56.0,648.0,661.0,4000.0,-4000.0,-713.0,4000.0
-126.0,9.0,556.0,655.0,4000.0,-3323.0,-472.0,4000.0
13.0,-15.0,88.0,425.0,4000.0,-1915.0,-882.0,4000.0
530.0,21.0,-218.0,207.0,4000.0,-1232.0,-963.0,4000.0
563.0,-25.0,-125.0,16.0,4000.0,265.0,-522.0,4000.0
654.0,-115.0,-73.0,-46.0,4000.0,1592.0,-69.0,4000.0
517.0,-147.0,-73.0,-75.0,4000.0,1292.0,315.0,4000.0
499.0,-92.0,115.0,114.0,4000.0,348.0,470.0,4000.0
184.0,-24.0,215.0,290.0,4000.0,48.0,681.0,4000.0
44.0,4.0,174.0,127.0,4000.0,31.0,1149.0,4000.0
192.0,34.0,115.0,258.0,4000.0,364.0,1064.0,4000.0
21.0,73.0,93.0,317.0,4000.0,1083.0,779.0,4000.0
-64.0,33.0,-108.0,16.0,4000.0,1508.0,628.0,4000.0
-331.0,21.0,-357.0,-462.0,4000.0,1969.0,571.0,4000.0
-443.0,17.0,-385.0,-445.0,4000.0,1926.0,576.0,2941.0
-388.0,-76.0,-389.0,-100.0,4000.0,1929.0,324.0,2883.0
-339.0,-103.0,-336.0,-130.0,4000.0,1864.0,185.0,3079.0
-261.0,-89.0,-814.0,-187.0,4000.0,1852.0,75.0,2901.0
-63.0,-104.0,-1231.0,-100.0,4000.0,1710.0,77.0,808.0
72.0,-114.0,-841.0,25.0,4000.0,1521.0,37.0,-1265.0
257.0,-102.0,-242.0,87.0,4000.0,1539.0,-26.0,-2995.0
391.0,-126.0,99.0,104.0,4000.0,1377.0,-54.0,-4000.0
314.0,-101.0,337.0,75.0,4000.0,1322.0,-213.0,-4000.0
314.0,-17.0,354.0,107.0,-476.0,1157.0,-253.0,-4000.0
144.0,47.0,304.0,115.0,-4000.0,1148.0,-63.0,-4000.0
-43.0,20.0,402.0,73.0,-4000.0,1026.0,116.0,-4000.0
-110.0,-18.0,466.0,42.0,-4000.0,941.0,232.0,-4000.0
-112.0,-4.0,476.0,20.0,-4000.0,929.0,244.0,-4000.0
-168.0,-29.0,511.0,59.0,-4000.0,858.0,-132.0,-3527.0
-266.0,-98.0,450.0,-75.0,-4000.0,791.0,-224.0,-2166.0
-257.0,-129.0,212.0,-178.0,-4000.0,628.0,-224.0,-861.0
-235.0,-122.0,130.0,-160.0,-4000.0,563.0,-383.0,322.0
-211.0,-110.0,-188.0,-159.0,-4000.0,449.0,-327.0,564.0
-232.0,-39.0,-811.0,-104.0,-4000.0,374.0,-415.0,1450.0
-212.0,-41.0,-1192.0,-40.0,-4000.0,283.0,-519.0,2183.0
-140.0,-40.0,-1258.0,55.0,-4000.0,254.0,-611.0,1633.0
-120.0,24.0,-1193.0,11.0,-4000.0,210.0,-630.0,1633.0
-132.0,67.0,-741.0,-90.0,-4000.0,160.0,-489.0,1325.0
-143.0,69.0,317.0,-88.0,-4000.0,83.0,-298.0,804.0
-83.0,60.0,1257.0,-132.0,-4000.0,19.0,-250.0,1395.0
-56.0,87.0,1794.0,-185.0,-3642.0,-36.0,-228.0,1714.0
-70.0,99.0,1053.0,-188.0,-3182.0,-116.0,-261.0,760.0
-25.0,103.0,-1288.0,-189.0,-2935.0,-93.0,-308.0,-10.0
17.0,124.0,-2601.0,-160.0,-2818.0,-193.0,-134.0,128.0
13.0,135.0,-2981.0,-114.0,-2403.0,-267.0,-94.0,-565.0
39.0,43.0,-2964.0,-68.0,-1816.0,-362.0,-90.0,-1540.0
51.0,17.0,-255.0,-30.0,-1121.0,-409.0,-30.0,-2212.0
23.0,14.0,1178.0,-39.0,-207.0,-358.0,-43.0,-1859.0
17.0,60.0,2260.0,-32.0,876.0,-419.0,-130.0,-953.0
-14.0,105.0,4000.0,8.0,2124.0,-403.0,-198.0,461.0
-14.0,86.0,4000.0,4.0,2825.0,-262.0,-20.0,2804.0
-39.0,111.0,3251.0,-50.0,3266.0,-205.0,65.0,4000.0
-79.0,71.0,891.0,-54.0,3877.0,-104.0,36.0,3291.0
-32.0,112.0,923.0,-54.0,3916.0,45.0,188.0,1660.0
40.0,122.0,1174.0,-148.0,3733.0,119.0,348.0,295.0
60.0,116.0,433.0,-130.0,3534.0,293.0,661.0,-3527.0
104.0,170.0,807.0,-63.0,2578.0,266.0,1027.0,-4000.0
123.0,149.0,598.0,-93.0,1800.0,141.0,1418.0,-4000.0
128.0,128.0,212.0,-90.0,1091.0,19.0,1605.0,-4000.0
187.0,87.0,-211.0,-67.0,1026.0,-101.0,1658.0,-4000.0
157.0,56.0,-580.0,-63.0,1266.0,-151.0,1866.0,-4000.0
92.0,15.0,-1101.0,29.0,469.0,-219.0,1711.0,-4000.0
52.0,-15.0,-2253.0,146.0,-24.0,-268.0,1509.0,-4000.0
22.0,-13.0,-3567.0,167.0,35.0,-338.0,1397.0,-4000.0
12.0,-1.0,-2578.0,109.0,496.0,-340.0,1183.0,-4000.0
-39.0,63.0,-1203.0,38.0,-35.0,-384.0,1072.0,-4000.0
-82.0,90.0,-454.0,51.0,-1272.0,-419.0,998.0,-4000.0
-96.0,125.0,823.0,43.0,-2387.0,-472.0,1125.0,-4000.0
-64.0,222.0,1282.0,55.0,-2953.0,-462.0,1280.0,-4000.0
-35.0,282.0,1443.0,87.0,-2741.0,-239.0,1410.0,-4000.0
-41.0,269.0,964.0,27.0,-2369.0,-118.0,1249.0,-4000.0
-50.0,279.0,389.0,-4.0,-2212.0,-243.0,759.0,-4000.0
-79.0,345.0,-499.0,-42.0,-2406.0,-268.0,208.0,-4000.0
-84.0,279.0,-1537.0,-217.0,-2270.0,-316.0,-449.0,-3219.0
-91.0,124.0,-2916.0,-254.0,-2029.0,-293.0,-876.0,-2344.0
-46.0,-12.0,-3409.0,-71.0,-1666.0,-198.0,-1433.0,-1567.0
-69.0,-149.0,-1214.0,-62.0,-1817.0,-313.0,-1881.0,-1632.0
-171.0,-333.0,-448.0,-30.0,-2094.0,-293.0,-1997.0,-2543.0
-189.0,-432.0,-3408.0,28.0,-2550.0,-189.0,-2340.0,-2670.0
-99.0,-293.0,-4000.0,47.0,-3148.0,-135.0,-2512.0,-818.0
-65.0,-209.0,-1823.0,115.0,-2356.0,41.0,-2675.0,2184.0
-179.0,-215.0,2665.0,106.0,-860.0,213.0,-3082.0,4000.0
-201.0,-261.0,3510.0,139.0,432.0,278.0,-3390.0,4000.0
-113.0,-287.0,3054.0,75.0,961.0,286.0,-3766.0,4000.0
7.0,-102.0,2474.0,27.0,1207.0,45.0,-3949.0,4000.0
142.0,-1.0,2730.0,54.0,1590.0,-22.0,-3897.0,4000.0
165.0,-129.0,1249.0,-67.0,2503.0,69.0,-3727.0,4000.0
187.0,-244.0,55.0,-208.0,3902.0,-25.0,-3147.0,4000.0
212.0,-209.0,467.0,-243.0,4000.0,-69.0,-2560.0,4000.0
155.0,-205.0,872.0,-185.0,4000.0,-228.0,-1917.0,4000.0
131.0,-314.0,-107.0,-96.0,4000.0,-331.0,-1291.0,2819.0
90.0,-368.0,828.0,42.0,4000.0,-289.0,-615.0,1533.0
-12.0,-347.0,3251.0,134.0,4000.0,-342.0,474.0,1248.0
-64.0,-314.0,3648.0,-16.0,2825.0,-313.0,1293.0,2422.0
-6.0,-166.0,3717.0,-21.0,2646.0,-102.0,1921.0,3520.0
23.0,-57.0,2548.0,155.0,3020.0,27.0,2429.0,1112.0
34.0,50.0,1444.0,298.0,3541.0,124.0,2814.0,-2121.0
72.0,170.0,764.0,382.0,3592.0,155.0,3168.0,-4000.0
36.0,121.0,24.0,358.0,3281.0,105.0,3477.0,-4000.0
45.0,269.0,-564.0,245.0,3363.0,95.0,3803.0,-4000.0
78.0,607.0,-1321.0,-29.0,1254.0,41.0,3838.0,-2617.0
133.0,941.0,-1544.0,-263.0,-2081.0,97.0,3559.0,-1208.0
163.0,1120.0,-1602.0,-180.0,-4000.0,103.0,3103.0,-1191.0
209.0,1012.0,-1635.0,-94.0,-4000.0,248.0,2749.0,-1823.0
260.0,737.0,-1700.0,-78.0,-4000.0,367.0,2514.0,-2425.0
241.0,288.0,-1767.0,-7.0,-4000.0,261.0,2384.0,-4000.0
269.0,70.0,-1878.0,23.0,-4000.0,185.0,2179.0,-4000.0
233.0,276.0,-3083.0,120.0,-4000.0,37.0,1866.0,-4000.0
187.0,542.0,-4000.0,138.0,-4000.0,-33.0,1602.0,-4000.0
204.0,256.0,-4000.0,139.0,-4000.0,38.0,1410.0,-4000.0
80.0,-224.0,-4000.0,64.0,-4000.0,114.0,1158.0,-4000.0
-116.0,-503.0,-4000.0,-121.0,-4000.0,50.0,693.0,-4000.0
-242.0,-743.0,-4000.0,-178.0,-4000.0,-6.0,220.0,-4000.0
-315.0,-617.0,4000.0,-98.0,-4000.0,-162.0,-78.0,-4000.0
-315.0,-836.0,4000.0,-155.0,133.0,-268.0,-147.0,-4000.0
-416.0,-1203.0,4000.0,-241.0,4000.0,-306.0,-327.0,1176.0
-493.0,-1271.0,4000.0,-263.0,4000.0,-378.0,-817.0,4000.0
-404.0,-1206.0,4000.0,-497.0,4000.0,-354.0,-1449.0,4000.0
-215.0,-1008.0,4000.0,-560.0,4000.0,-342.0,-1653.0,4000.0
-75.0,-700.0,4000.0,-297.0,4000.0,-216.0,-1710.0,4000.0
-67.0,-188.0,1571.0,80.0,4000.0,-97.0,-1583.0,4000.0
-49.0,74.0,-161.0,687.0,4000.0,36.0,-1038.0,4000.0
7.0,365.0,-1280.0,1160.0,4000.0,219.0,-597.0,4000.0
43.0,476.0,-1823.0,1151.0,-1044.0,412.0,-33.0,4000.0
-193.0,485.0,-1813.0,524.0,-4000.0,651.0,336.0,4000.0
-409.0,536.0,-2899.0,-455.0,-4000.0,853.0,441.0,4000.0
-189.0,469.0,-4000.0,-789.0,-4000.0,1033.0,439.0,4000.0
101.0,406.0,-4000.0,-635.0,-4000.0,1590.0,294.0,2640.0
382.0,294.0,-4000.0,-217.0,-4000.0,1798.0,45.0,2624.0
627.0,341.0,-4000.0,316.0,-4000.0,1539.0,-353.0,2433.0
837.0,273.0,-3795.0,451.0,-4000.0,1379.0,-836.0,1338.0
769.0,229.0,-3437.0,392.0,-4000.0,296.0,-1252.0,-2605.0
256.0,240.0,-3006.0,-14.0,-2578.0,-642.0,-1618.0,-4000.0
-8.0,212.0,-2578.0,-822.0,-321.0,-940.0,-2056.0,-4000.0
-255.0,162.0,-2202.0,-1005.0,1322.0,-1096.0,-2121.0,-3451.0
-470.0,99.0,-1720.0,-920.0,3541.0,-900.0,-2080.0,-1859.0
-599.0,99.0,-1362.0,-776.0,4000.0,-676.0,-1897.0,-2024.0
-691.0,59.0,-1061.0,-620.0,4000.0,-642.0,-1606.0,-2111.0
-311.0,54.0,-808.0,-462.0,4000.0,-721.0,-1625.0,-2128.0
13.0,46.0,-580.0,45.0,4000.0,-373.0,-1648.0,-2584.0
86.0,56.0,-283.0,244.0,4000.0,-297.0,-1801.0,-3970.0
-4.0,19.0,-61.0,317.0,4000.0,-521.0,-1832.0,-3759.0
198.0,7.0,110.0,362.0,4000.0,-698.0,-1914.0,-2362.0
530.0,56.0,172.0,515.0,4000.0,-575.0,-2859.0,-3527.0
961.0,-1.0,275.0,634.0,4000.0,-110.0,-3984.0,-4000.0
1376.0,-86.0,207.0,603.0,4000.0,274.0,-4000.0,-4000.0
778.0,-80.0,-87.0,472.0,4000.0,480.0,-4000.0,-4000.0
408.0,-70.0,68.0,204.0,4000.0,245.0,-3212.0,-3085.0
-87.0,-70.0,293.0,-99.0,4000.0,-172.0,-1625.0,-2322.0
-763.0,-83.0,27.0,-278.0,4000.0,-407.0,-394.0,-2114.0
-979.0,-70.0,100.0,-446.0,4000.0,-550.0,557.0,-2114.0
-1292.0,-50.0,202.0,-920.0,4000.0,-615.0,1353.0,-744.0
-1075.0,-99.0,193.0,-984.0,4000.0,-706.0,2058.0,1077.0
-909.0,-59.0,336.0,-702.0,4000.0,-794.0,1670.0,2154.0
-821.0,-27.0,433.0,-322.0,3085.0,-501.0,802.0,2572.0
-765.0,-94.0,408.0,7.0,2972.0,24.0,759.0,2445.0
-844.0,-176.0,328.0,467.0,2838.0,725.0,1399.0,2544.0
-599.0,-199.0,397.0,1086.0,1071.0,636.0,2429.0,2872.0
-368.0,-143.0,376.0,1119.0,-1031.0,-75.0,3021.0,3404.0
-238.0,-75.0,374.0,752.0,-1012.0,-188.0,3270.0,4000.0
-87.0,1.0,385.0,548.0,-1833.0,9.0,2582.0,4000.0
72.0,33.0,374.0,502.0,-4000.0,394.0,1919.0,4000.0
243.0,26.0,402.0,410.0,-4000.0,837.0,3128.0,4000.0
382.0,17.0,437.0,406.0,-4000.0,706.0,3494.0,3910.0
443.0,7.0,447.0,603.0,-4000.0,457.0,2843.0,2107.0
430.0,-20.0,441.0,799.0,-4000.0,628.0,3152.0,831.0
373.0,-10.0,546.0,1125.0,-4000.0,368.0,4000.0,874.0
359.0,-8.0,642.0,1306.0,-4000.0,-240.0,4000.0,1281.0
313.0,28.0,500.0,909.0,-3539.0,-293.0,3860.0,1957.0
166.0,46.0,207.0,499.0,-1007.0,-71.0,3151.0,2290.0
90.0,63.0,109.0,-65.0,444.0,-268.0,2517.0,1663.0
243.0,95.0,-97.0,-1109.0,1388.0,-271.0,1899.0,1142.0
391.0,86.0,-515.0,-2053.0,1966.0,199.0,871.0,-251.0
465.0,112.0,-446.0,-1988.0,2556.0,399.0,-113.0,-2670.0
499.0,140.0,63.0,-1728.0,3476.0,361.0,-867.0,-3462.0
447.0,156.0,42.0,-1956.0,3707.0,43.0,-2169.0,-3610.0
399.0,162.0,-122.0,-1673.0,3476.0,-173.0,-2976.0,-4000.0
253.0,134.0,47.0,-1005.0,3623.0,-345.0,-3212.0,-4000.0
192.0,116.0,24.0,-632.0,3747.0,-613.0,-2994.0,-3545.0
92.0,46.0,108.0,-417.0,3595.0,-727.0,-2911.0,-1921.0
-7.0,-15.0,136.0,-377.0,3281.0,-1005.0,-2869.0,-1743.0
-94.0,-60.0,135.0,-194.0,3334.0,-1330.0,-2675.0,-1013.0
-274.0,-109.0,190.0,15.0,3102.0,-1509.0,-2237.0,160.0
-291.0,-121.0,142.0,-71.0,1395.0,-1505.0,-1440.0,1187.0
-306.0,-118.0,110.0,12.0,815.0,-1135.0,-1181.0,1045.0
-250.0,-100.0,104.0,191.0,1379.0,-1263.0,-772.0,1372.0
-118.0,-94.0,184.0,410.0,1222.0,-1764.0,-320.0,1323.0
-71.0,-51.0,163.0,589.0,692.0,-2153.0,88.0,1521.0
-43.0,24.0,150.0,628.0,684.0,-2921.0,445.0,932.0
-21.0,31.0,128.0,613.0,1118.0,-3387.0,490.0,-2502.0
23.0,76.0,123.0,598.0,342.0,-3978.0,587.0,-4000.0
23.0,128.0,107.0,714.0,39.0,-4000.0,772.0,-4000.0
14.0,138.0,82.0,763.0,1189.0,-4000.0,571.0,-4000.0
9.0,208.0,61.0,756.0,1266.0,-4000.0,-359.0,-4000.0
-29.0,329.0,23.0,785.0,-5.0,-4000.0,-941.0,-1891.0
1.0,437.0,93.0,785.0,-732.0,-2091.0,667.0,1639.0
-14.0,321.0,1.0,767.0,-1200.0,2824.0,1866.0,-79.0
-31.0,160.0,-32.0,821.0,-2777.0,4000.0,2492.0,-3349.0
-9.0,12.0,28.0,720.0,-3964.0,4000.0,3021.0,-4000.0
-83.0,-161.0,-42.0,255.0,-4000.0,4000.0,2879.0,-4000.0
-392.0,-304.0,-84.0,-76.0,-3929.0,4000.0,3270.0,-4000.0
-539.0,-352.0,-98.0,-106.0,-3988.0,4000.0,2956.0,485.0
19.0,-159.0,-165.0,-106.0,-4000.0,4000.0,2956.0,4000.0
328.0,49.0,-258.0,-236.0,-2550.0,4000.0,2321.0,3910.0
214.0,200.0,-28.0,-366.0,-1885.0,4000.0,1770.0,914.0
412.0,197.0,76.0,-540.0,-877.0,4000.0,1825.0,955.0
543.0,189.0,-49.0,-702.0,-94.0,4000.0,1705.0,1450.0
564.0,197.0,24.0,-645.0,237.0,4000.0,1540.0,3275.0
462.0,147.0,-3.0,-614.0,876.0,3900.0,1189.0,4000.0
112.0,120.0,68.0,-397.0,131.0,2385.0,1084.0,4000.0
-274.0,34.0,56.0,-289.0,-1007.0,1409.0,791.0,4000.0
-412.0,-67.0,30.0,-361.0,-1888.0,535.0,543.0,4000.0
-158.0,-132.0,-31.0,-420.0,-1239.0,-411.0,83.0,4000.0
24.0,-107.0,-43.0,-511.0,-1915.0,-1658.0,-428.0,4000.0
-24.0,-69.0,11.0,-450.0,-2419.0,-2750.0,-1197.0,4000.0
-76.0,-32.0,-57.0,-305.0,-2935.0,-3063.0,-1527.0,4000.0
-174.0,-8.0,-53.0,-90.0,-4000.0,-2549.0,-1635.0,4000.0
-266.0,11.0,-87.0,-44.0,-4000.0,-2335.0,-2433.0,4000.0
-437.0,14.0,-80.0,-40.0,-4000.0,-2647.0,-3106.0,4000.0
-453.0,-7.0,-105.0,51.0,-4000.0,-2713.0,-3520.0,4000.0
-280.0,9.0,-56.0,106.0,-4000.0,-2313.0,-3571.0,4000.0
-125.0,-7.0,-26.0,155.0,-4000.0,-2209.0,-3668.0,2819.0
-79.0,14.0,-59.0,199.0,-4000.0,-2534.0,-3314.0,544.0
-102.0,-39.0,-2.0,242.0,-4000.0,-2689.0,-2951.0,-1494.0
-98.0,-130.0,-11.0,264.0,-4000.0,-3193.0,-2930.0,-3321.0
-127.0,-99.0,3.0,310.0,-3446.0,-3323.0,-2841.0,-4000.0
-104.0,-67.0,-3.0,335.0,-2989.0,-2902.0,-2714.0,-4000.0
-96.0,28.0,19.0,446.0,-1885.0,-2791.0,-2337.0,-4000.0
-47.0,66.0,21.0,583.0,-1463.0,-2595.0,-2311.0,-4000.0
-8.0,-4.0,42.0,684.0,-947.0,-2383.0,-2311.0,-4000.0
0.0,-83.0,43.0,663.0,-738.0,-2040.0,-2317.0,-4000.0
-8.0,-179.0,-37.0,382.0,-1098.0,-1647.0,-2015.0,-4000.0
-10.0,-161.0,-41.0,285.0,-1491.0,-1487.0,-1527.0,-4000.0
36.0,-181.0,-33.0,329.0,-2170.0,-1261.0,-1462.0,-4000.0
107.0,-159.0,-121.0,45.0,-2409.0,-1198.0,-1382.0,-4000.0
187.0,-135.0,-194.0,-417.0,-2860.0,-1135.0,-1377.0,-4000.0
240.0,-253.0,-159.0,-690.0,-3132.0,-1166.0,-852.0,-4000.0
212.0,-253.0,-82.0,-715.0,-3274.0,-1062.0,-98.0,-4000.0
176.0,-224.0,-59.0,-594.0,-3197.0,-940.0,29.0,-4000.0
166.0,-271.0,-78.0,-332.0,-2676.0,-940.0,87.0,-4000.0
95.0,-194.0,-43.0,-149.0,-1665.0,-835.0,439.0,-2959.0
64.0,-131.0,-57.0,-161.0,-598.0,-786.0,1293.0,-1298.0
7.0,-125.0,-9.0,67.0,444.0,-790.0,2309.0,-580.0
-36.0,-58.0,45.0,126.0,1388.0,-1196.0,2582.0,-195.0
-50.0,-24.0,56.0,-20.0,1992.0,-1617.0,1418.0,279.0
-100.0,21.0,153.0,-219.0,2581.0,-1701.0,136.0,817.0
-44.0,34.0,57.0,-680.0,2955.0,-1422.0,-555.0,1272.0
-29.0,21.0,20.0,-891.0,3466.0,-208.0,-1431.0,1769.0
-29.0,31.0,8.0,-938.0,3657.0,1531.0,-1397.0,2094.0
204.0,46.0,0.0,-776.0,3727.0,2254.0,-1116.0,1924.0
393.0,74.0,63.0,-387.0,3916.0,896.0,-649.0,1122.0
145.0,66.0,69.0,-125.0,3877.0,-768.0,-117.0,80.0
-95.0,5.0,124.0,35.0,3606.0,-615.0,181.0,-548.0
-215.0,-7.0,125.0,158.0,2776.0,339.0,522.0,-659.0
-327.0,6.0,152.0,270.0,2254.0,1474.0,74.0,-484.0
-305.0,18.0,124.0,276.0,1272.0,1898.0,260.0,-334.0
-339.0,51.0,132.0,289.0,-588.0,998.0,532.0,-202.0
-295.0,74.0,177.0,320.0,-2158.0,941.0,283.0,-313.0
-242.0,129.0,140.0,303.0,-3803.0,1033.0,628.0,-390.0
-185.0,176.0,100.0,272.0,-4000.0,805.0,571.0,-101.0
-43.0,131.0,27.0,221.0,-4000.0,622.0,753.0,51.0
21.0,69.0,-11.0,129.0,-4000.0,219.0,1084.0,169.0
49.0,69.0,-108.0,104.0,-2794.0,119.0,1489.0,149.0
41.0,37.0,-192.0,116.0,-411.0,15.0,1645.0,-163.0
27.0,9.0,-147.0,142.0,2443.0,-48.0,1137.0,-240.0
35.0,2.0,-114.0,171.0,4000.0,-114.0,1019.0,138.0
85.0,-39.0,-72.0,160.0,4000.0,-136.0,934.0,422.0
119.0,-38.0,-14.0,194.0,4000.0,-167.0,1052.0,564.0
125.0,-71.0,-56.0,226.0,4000.0,-224.0,1084.0,666.0
175.0,-95.0,-29.0,258.0,4000.0,-195.0,1658.0,547.0
240.0,14.0,59.0,305.0,2907.0,-172.0,2309.0,556.0
440.0,55.0,122.0,337.0,1579.0,-152.0,2379.0,499.0
789.0,58.0,121.0,323.0,425.0,-204.0,2061.0,536.0
870.0,78.0,64.0,329.0,-751.0,-126.0,1288.0,666.0
719.0,64.0,74.0,374.0,-1368.0,26.0,1205.0,1117.0
790.0,59.0,56.0,295.0,-1255.0,74.0,661.0,1346.0
640.0,52.0,63.0,140.0,-1012.0,-104.0,-20.0,1069.0
363.0,86.0,56.0,-74.0,-556.0,-419.0,116.0,808.0
-38.0,34.0,-20.0,-300.0,70.0,-558.0,1581.0,859.0
-649.0,-3.0,-24.0,-442.0,701.0,-394.0,3669.0,1201.0
-710.0,-4.0,67.0,-521.0,1247.0,280.0,3542.0,1122.0
-777.0,-122.0,30.0,-776.0,1669.0,987.0,2420.0,677.0
-815.0,-199.0,-12.0,-1024.0,2060.0,1118.0,1931.0,-2.0
-870.0,-127.0,-137.0,-1024.0,2231.0,693.0,1474.0,-366.0
-1010.0,-47.0,-141.0,-812.0,2060.0,303.0,1118.0,221.0
-945.0,-14.0,19.0,-429.0,1930.0,319.0,1184.0,1118.0
-676.0,96.0,28.0,-101.0,1898.0,156.0,1410.0,1460.0
-409.0,142.0,34.0,134.0,1669.0,232.0,1410.0,1567.0
-167.0,91.0,15.0,402.0,1865.0,415.0,858.0,1207.0
56.0,8.0,45.0,490.0,2513.0,311.0,608.0,273.0
51.0,18.0,10.0,290.0,2711.0,233.0,1019.0,-274.0
58.0,79.0,-10.0,-44.0,3037.0,125.0,995.0,-685.0
33.0,27.0,-30.0,-421.0,3020.0,150.0,95.0,-1078.0
162.0,45.0,-82.0,-376.0,2425.0,206.0,-287.0,-1111.0
216.0,34.0,-85.0,-208.0,2296.0,490.0,-717.0,-715.0
198.0,25.0,-89.0,-93.0,2889.0,837.0,-1503.0,51.0
215.0,23.0,-51.0,223.0,4000.0,947.0,-2015.0,453.0
171.0,5.0,-55.0,365.0,4000.0,749.0,-2560.0,431.0
163.0,27.0,-87.0,441.0,4000.0,490.0,-2675.0,308.0
139.0,11.0,-108.0,406.0,3269.0,315.0,-2911.0,26.0
150.0,18.0,-92.0,333.0,2383.0,226.0,-3017.0,-41.0
122.0,16.0,-74.0,453.0,2321.0,199.0,-3147.0,137.0
125.0,9.0,-85.0,388.0,2907.0,179.0,-3407.0,406.0
157.0,5.0,-86.0,21.0,3102.0,184.0,-3520.0,1000.0
268.0,41.0,-75.0,-107.0,2711.0,44.0,-3585.0,1437.0
227.0,49.0,-77.0,223.0,2190.0,-81.0,-3342.0,1338.0
-197.0,31.0,-61.0,524.0,2019.0,-221.0,-2924.0,1045.0
-95.0,57.0,-54.0,301.0,1800.0,-287.0,-2512.0,591.0
287.0,25.0,-88.0,-75.0,1983.0,-384.0,-2464.0,-317.0
265.0,-17.0,-116.0,-146.0,2231.0,-526.0,-2223.0,-1339.0
313.0,0.0,-129.0,-224.0,1580.0,-493.0,-1652.0,-1644.0
199.0,-7.0,-122.0,-222.0,668.0,-532.0,-1076.0,-1534.0
187.0,-26.0,-48.0,-67.0,522.0,-489.0,-379.0,-1404.0
179.0,0.0,46.0,207.0,1012.0,-407.0,297.0,-1655.0
112.0,22.0,68.0,417.0,1417.0,-362.0,571.0,-2412.0
163.0,1.0,41.0,310.0,1970.0,-391.0,759.0,-2322.0
53.0,8.0,62.0,156.0,1656.0,-323.0,1345.0,-1078.0
-24.0,28.0,71.0,52.0,1140.0,-119.0,1605.0,-148.0
-158.0,29.0,30.0,-107.0,1722.0,33.0,1467.0,-280.0
-90.0,48.0,39.0,-383.0,1920.0,141.0,1410.0,-177.0
-126.0,-34.0,2.0,-586.0,1409.0,78.0,1475.0,157.0
-147.0,-153.0,-56.0,-724.0,491.0,161.0,1467.0,361.0
-49.0,-175.0,-33.0,-717.0,-52.0,246.0,1856.0,817.0
-152.0,-94.0,4.0,-519.0,586.0,172.0,2377.0,1201.0
-143.0,122.0,73.0,-356.0,1473.0,280.0,2309.0,1704.0
-138.0,460.0,73.0,-190.0,2113.0,506.0,2232.0,2154.0
-54.0,508.0,23.0,6.0,2165.0,831.0,2191.0,2484.0
-25.0,254.0,24.0,120.0,1091.0,815.0,2191.0,2677.0
-30.0,71.0,79.0,175.0,-324.0,-64.0,2179.0,3079.0
-12.0,56.0,66.0,204.0,-1849.0,-1440.0,2322.0,3469.0
-54.0,2.0,42.0,248.0,-3539.0,-1896.0,3128.0,3600.0
-71.0,-149.0,85.0,296.0,-3964.0,-945.0,3683.0,3976.0
-55.0,-210.0,95.0,170.0,-4000.0,-147.0,3477.0,4000.0
-53.0,-325.0,23.0,18.0,-4000.0,-345.0,2973.0,4000.0
-85.0,-337.0,-41.0,-2.0,-4000.0,-731.0,2570.0,3723.0
-64.0,-334.0,-46.0,-111.0,-4000.0,-966.0,1971.0,3469.0
-102.0,-340.0,-40.0,-241.0,-4000.0,-1005.0,1532.0,3404.0
-105.0,-126.0,-39.0,-293.0,-4000.0,-586.0,1406.0,3535.0
-129.0,-48.0,39.0,-250.0,-4000.0,158.0,1467.0,2948.0
-151.0,-22.0,180.0,-239.0,-3904.0,1026.0,1381.0,1986.0
-97.0,78.0,118.0,-305.0,-4000.0,1580.0,844.0,1247.0
-70.0,163.0,88.0,-283.0,-4000.0,1693.0,467.0,556.0
-35.0,207.0,107.0,-255.0,-4000.0,1092.0,307.0,-3.0
-29.0,200.0,67.0,-271.0,-4000.0,246.0,361.0,-1339.0
2.0,200.0,126.0,-328.0,-4000.0,355.0,514.0,-2682.0
17.0,163.0,141.0,-328.0,-3767.0,1148.0,613.0,-3647.0
49.0,156.0,171.0,-271.0,-2561.0,2060.0,521.0,-4000.0
63.0,175.0,146.0,-291.0,-2289.0,2319.0,230.0,-4000.0
15.0,205.0,28.0,-271.0,-2550.0,1227.0,-147.0,-4000.0
-149.0,152.0,-73.0,-99.0,-1945.0,351.0,-410.0,-4000.0
-245.0,77.0,-153.0,42.0,-1606.0,16.0,-532.0,-4000.0
-138.0,-18.0,-222.0,99.0,-2186.0,1.0,-550.0,-4000.0
-248.0,-88.0,-277.0,110.0,-2496.0,1026.0,-548.0,-4000.0
-431.0,-101.0,-320.0,129.0,-2354.0,1864.0,-737.0,-4000.0
-424.0,-207.0,-283.0,136.0,-3408.0,1521.0,-1128.0,-4000.0
-220.0,-236.0,-187.0,245.0,-4000.0,284.0,-1587.0,-4000.0
240.0,-221.0,-29.0,362.0,-4000.0,-313.0,-2043.0,-4000.0
499.0,-171.0,215.0,497.0,-4000.0,-548.0,-2064.0,-4000.0
444.0,-27.0,318.0,617.0,-4000.0,-1127.0,-1716.0,-1839.0
315.0,78.0,234.0,577.0,-203.0,-1431.0,-1422.0,1338.0
202.0,87.0,28.0,559.0,-883.0,-2091.0,-1319.0,1462.0
88.0,40.0,-98.0,419.0,-4000.0,-2797.0,-1181.0,-166.0
-8.0,8.0,-73.0,270.0,-4000.0,-2673.0,-1206.0,-1046.0
-66.0,-97.0,-12.0,175.0,-4000.0,-1127.0,-1684.0,176.0
-136.0,-136.0,-69.0,23.0,-4000.0,1592.0,-1781.0,816.0
-56.0,-73.0,-140.0,-201.0,-4000.0,3007.0,-1438.0,590.0
-111.0,-52.0,-129.0,-397.0,-4000.0,2124.0,-977.0,2498.0
-142.0,-62.0,-49.0,-350.0,-4000.0,528.0,-998.0,4000.0
-132.0,-137.0,139.0,-191.0,-4000.0,343.0,-1380.0,2640.0
-246.0,-179.0,318.0,112.0,-4000.0,-35.0,-1264.0,41.0
-158.0,-89.0,344.0,402.0,-4000.0,-2063.0,-849.0,-2784.0
-13.0,30.0,104.0,423.0,2618.0,-2902.0,-774.0,-3219.0
74.0,75.0,-103.0,242.0,4000.0,-1949.0,-920.0,-1534.0
97.0,115.0,-274.0,69.0,4000.0,19.0,-1169.0,271.0
117.0,117.0,-503.0,-10.0,4000.0,1405.0,-1136.0,4000.0
109.0,160.0,-550.0,-16.0,4000.0,2177.0,-662.0,4000.0
69.0,216.0,-479.0,-81.0,4000.0,2319.0,-613.0,4000.0
126.0,227.0,-446.0,-279.0,4000.0,1378.0,-587.0,4000.0
108.0,279.0,-315.0,-299.0,4000.0,203.0,-298.0,4000.0
92.0,235.0,-4.0,-246.0,4000.0,-489.0,-48.0,4000.0
77.0,182.0,114.0,-283.0,4000.0,-1140.0,189.0,3263.0
48.0,187.0,164.0,-238.0,4000.0,-1205.0,172.0,3552.0
30.0,179.0,354.0,-137.0,4000.0,-1422.0,-85.0,3600.0
-53.0,102.0,450.0,-72.0,4000.0,-2725.0,223.0,3487.0
-11.0,102.0,437.0,-54.0,4000.0,-2008.0,871.0,3869.0
20.0,140.0,364.0,-59.0,4000.0,-636.0,714.0,3662.0
-11.0,103.0,303.0,80.0,4000.0,-283.0,622.0,3291.0
-17.0,94.0,153.0,222.0,3202.0,-468.0,860.0,1848.0
17.0,57.0,-91.0,276.0,2308.0,1114.0,871.0,2025.0
-32.0,-30.0,-163.0,458.0,1292.0,1852.0,832.0,2624.0
-205.0,-89.0,-141.0,655.0,-588.0,1703.0,941.0,3137.0
-244.0,-77.0,16.0,785.0,-2277.0,1254.0,1475.0,2948.0
-164.0,-43.0,153.0,720.0,-2595.0,-932.0,1711.0,420.0
-66.0,-33.0,113.0,439.0,-2605.0,-985.0,1788.0,-1860.0
31.0,8.0,120.0,38.0,-2057.0,-966.0,2190.0,-4000.0
20.0,22.0,20.0,-475.0,-1768.0,-239.0,2426.0,-4000.0
-9.0,-35.0,-95.0,-870.0,-2598.0,-277.0,2746.0,-4000.0
-17.0,-149.0,-174.0,-1089.0,-3327.0,-1387.0,3205.0,-3862.0
-142.0,-408.0,-116.0,-898.0,-3315.0,-2185.0,3463.0,-4000.0
-255.0,-539.0,80.0,-466.0,-2857.0,-1989.0,2944.0,-4000.0
-140.0,-383.0,217.0,-103.0,-1879.0,-340.0,2579.0,-4000.0
82.0,-174.0,408.0,258.0,-1333.0,449.0,2321.0,-4000.0
130.0,-45.0,415.0,366.0,-1174.0,967.0,1205.0,-4000.0
106.0,31.0,263.0,341.0,-947.0,339.0,259.0,-4000.0
73.0,95.0,145.0,10.0,-812.0,142.0,-159.0,-3839.0
98.0,95.0,77.0,-574.0,-262.0,-308.0,-733.0,-3333.0
162.0,81.0,-141.0,-849.0,618.0,-578.0,-2121.0,-3007.0
122.0,37.0,-316.0,-1016.0,1722.0,-663.0,-3984.0,-3073.0
40.0,-8.0,-285.0,-979.0,2646.0,-875.0,-4000.0,-2992.0
-155.0,-121.0,-271.0,-835.0,3151.0,54.0,-4000.0,-3154.0
-141.0,-131.0,-328.0,-690.0,3167.0,-13.0,-4000.0,-2629.0
41.0,77.0,-365.0,-300.0,2776.0,-745.0,-4000.0,-1298.0
76.0,173.0,-242.0,26.0,2178.0,-1062.0,-4000.0,142.0
52.0,182.0,-283.0,56.0,1018.0,-570.0,-4000.0,2937.0
-28.0,142.0,-309.0,374.0,-659.0,-579.0,-4000.0,4000.0
-66.0,66.0,-320.0,751.0,-1854.0,-1270.0,-4000.0,4000.0
-37.0,40.0,-340.0,772.0,-2688.0,-1526.0,-4000.0,4000.0
56.0,33.0,-265.0,956.0,-3262.0,-576.0,-1588.0,4000.0
127.0,-35.0,-216.0,956.0,-3767.0,1518.0,4000.0,4000.0
204.0,-115.0,-71.0,779.0,-4000.0,2512.0,4000.0,4000.0
371.0,-80.0,-39.0,785.0,-4000.0,1214.0,4000.0,4000.0
522.0,55.0,-70.0,728.0,-4000.0,576.0,4000.0,4000.0
553.0,200.0,63.0,590.0,-4000.0,619.0,4000.0,4000.0
346.0,172.0,219.0,451.0,-3973.0,480.0,4000.0,3847.0
220.0,53.0,345.0,590.0,-3274.0,1075.0,4000.0,4000.0
139.0,-24.0,345.0,681.0,-2419.0,1157.0,4000.0,4000.0
-47.0,-120.0,463.0,678.0,-1719.0,1378.0,-1819.0,3910.0
-167.0,-214.0,512.0,858.0,-1184.0,1508.0,-4000.0,2172.0
-102.0,-253.0,215.0,699.0,-686.0,2230.0,-4000.0,1403.0
-58.0,-194.0,93.0,485.0,-324.0,2905.0,-4000.0,3014.0
-129.0,-70.0,130.0,165.0,92.0,2319.0,-4000.0,4000.0
-85.0,10.0,40.0,-609.0,758.0,1769.0,-4000.0,4000.0
-156.0,71.0,60.0,-855.0,1018.0,2060.0,-4000.0,4000.0
-180.0,78.0,218.0,-978.0,856.0,2682.0,-4000.0,4000.0
-172.0,56.0,334.0,-1301.0,815.0,2512.0,-4000.0,4000.0
-213.0,72.0,459.0,-1674.0,979.0,2319.0,-4000.0,4000.0
-131.0,34.0,396.0,-2053.0,831.0,2375.0,-4000.0,4000.0
-93.0,-18.0,9.0,-2055.0,547.0,2099.0,-906.0,4000.0
-114.0,-67.0,-198.0,-1854.0,201.0,1710.0,1418.0,4000.0
-110.0,-121.0,-147.0,-1423.0,-571.0,1163.0,1223.0,3014.0
-93.0,-99.0,-122.0,-965.0,-1228.0,189.0,2244.0,-720.0
-89.0,-72.0,-31.0,-448.0,-1711.0,15.0,3983.0,-4000.0
-132.0,-20.0,-44.0,-14.0,-2472.0,-334.0,4000.0,-4000.0
-182.0,-28.0,-182.0,-61.0,-3001.0,-767.0,4000.0,-4000.0
-147.0,-72.0,-193.0,-210.0,-3127.0,-116.0,4000.0,-4000.0
-102.0,-42.0,-161.0,122.0,-3327.0,1063.0,4000.0,-4000.0
-82.0,-53.0,-155.0,431.0,-3107.0,1768.0,4000.0,-4000.0
-44.0,-27.0,-212.0,538.0,-1784.0,622.0,4000.0,-4000.0
-33.0,-29.0,-224.0,687.0,-673.0,341.0,4000.0,-4000.0
-13.0,-2.0,-186.0,793.0,-730.0,-409.0,4000.0,-4000.0
7.0,23.0,-167.0,891.0,-1109.0,-1304.0,4000.0,-4000.0
4.0,12.0,-144.0,941.0,-1833.0,-1526.0,3788.0,-4000.0
-27.0,47.0,-151.0,1090.0,-2159.0,-2451.0,3530.0,-4000.0
-39.0,94.0,-139.0,980.0,-1463.0,-2392.0,3168.0,-4000.0
-36.0,233.0,-80.0,714.0,-942.0,-2397.0,2712.0,-4000.0
-79.0,374.0,-86.0,472.0,-251.0,-1975.0,2321.0,-4000.0
-87.0,508.0,-198.0,242.0,81.0,-1526.0,1931.0,-4000.0
-88.0,533.0,-357.0,116.0,-631.0,-1062.0,1854.0,-4000.0
-77.0,475.0,-348.0,115.0,-528.0,-102.0,1667.0,-4000.0
-32.0,353.0,-182.0,21.0,-440.0,988.0,1214.0,-4000.0
4.0,143.0,-165.0,-82.0,-1292.0,2251.0,1137.0,-4000.0
23.0,99.0,-71.0,118.0,-1979.0,3460.0,1149.0,-2667.0
12.0,-20.0,110.0,351.0,-1202.0,4000.0,1027.0,1527.0
108.0,-278.0,43.0,622.0,49.0,4000.0,903.0,4000.0
285.0,-469.0,20.0,726.0,1123.0,4000.0,673.0,4000.0
381.0,-535.0,52.0,533.0,2439.0,4000.0,439.0,4000.0
256.0,-444.0,-28.0,-53.0,2940.0,4000.0,99.0,4000.0
166.0,-307.0,-208.0,-1153.0,2825.0,3018.0,3.0,4000.0
137.0,-207.0,-212.0,-1461.0,3008.0,1864.0,-182.0,4000.0
39.0,-118.0,-11.0,-1303.0,3853.0,358.0,-507.0,4000.0
-21.0,-153.0,68.0,-967.0,3916.0,-1114.0,-316.0,4000.0
-154.0,-89.0,118.0,-332.0,4000.0,-2154.0,172.0,4000.0
-220.0,77.0,128.0,-41.0,4000.0,-3075.0,356.0,4000.0
-262.0,51.0,80.0,222.0,4000.0,-3518.0,77.0,4000.0
-271.0,37.0,100.0,533.0,4000.0,-3730.0,-473.0,4000.0
-220.0,28.0,39.0,733.0,4000.0,-3750.0,-898.0,4000.0
-180.0,86.0,-33.0,518.0,4000.0,-3750.0,-1246.0,4000.0
-156.0,113.0,-75.0,316.0,4000.0,-3583.0,-1851.0,4000.0
-184.0,102.0,-4.0,132.0,4000.0,-3311.0,-2483.0,4000.0
-138.0,41.0,93.0,238.0,4000.0,-3128.0,-3326.0,4000.0
-114.0,-117.0,95.0,179.0,2646.0,-2856.0,-4000.0,4000.0
-155.0,-24.0,17.0,-680.0,641.0,-2547.0,-4000.0,4000.0
-104.0,69.0,52.0,-1109.0,-2395.0,-2300.0,-4000.0,4000.0
3.0,-7.0,126.0,-1069.0,-4000.0,-2119.0,-4000.0,4000.0
37.0,20.0,86.0,-833.0,-4000.0,-1912.0,-4000.0,4000.0
116.0,-23.0,85.0,-486.0,-4000.0,-1774.0,-3882.0,4000.0
204.0,-158.0,-10.0,-243.0,-4000.0,-1461.0,-1076.0,4000.0
249.0,-169.0,-76.0,4.0,-4000.0,-989.0,1899.0,4000.0
250.0,-6.0,-46.0,425.0,-4000.0,-458.0,4000.0,4000.0
220.0,47.0,72.0,903.0,-4000.0,124.0,4000.0,3209.0
228.0,-23.0,187.0,1189.0,-4000.0,988.0,4000.0,-1339.0
216.0,12.0,171.0,956.0,-4000.0,1573.0,4000.0,-4000.0
204.0,9.0,89.0,533.0,-4000.0,994.0,4000.0,-4000.0
110.0,25.0,27.0,310.0,-4000.0,522.0,4000.0,-4000.0
-31.0,-3.0,-5.0,-319.0,-4000.0,276.0,4000.0,-4000.0
-85.0,-31.0,-15.0,-580.0,-4000.0,-548.0,4000.0,-4000.0
-112.0,-66.0,-25.0,-523.0,-4000.0,-1357.0,4000.0,-4000.0
-205.0,-102.0,-65.0,-684.0,-4000.0,-2418.0,1801.0,-4000.0
-196.0,-51.0,4.0,-450.0,-4000.0,-3323.0,-751.0,-4000.0
-186.0,11.0,45.0,-373.0,-4000.0,-3075.0,-3106.0,-4000.0
-229.0,49.0,48.0,-424.0,-4000.0,-3507.0,-4000.0,-4000.0
-162.0,42.0,93.0,-432.0,-3817.0,-4000.0,-4000.0,-4000.0
-36.0,59.0,89.0,11.0,-2595.0,-4000.0,-4000.0,-4000.0
-19.0,55.0,95.0,1110.0,-1398.0,-3813.0,-4000.0,-4000.0
-99.0,51.0,47.0,2270.0,137.0,-3832.0,-4000.0,-4000.0
-91.0,102.0,-82.0,2657.0,2491.0,-3600.0,-4000.0,-4000.0
7.0,193.0,-153.0,906.0,4000.0,-2463.0,-3897.0,-4000.0
139.0,215.0,-185.0,-502.0,4000.0,-2144.0,-3752.0,-4000.0
151.0,143.0,-145.0,-639.0,4000.0,-1526.0,-3444.0,-2930.0
69.0,-16.0,-80.0,-784.0,4000.0,-875.0,-2869.0,-545.0
6.0,-49.0,-73.0,-780.0,4000.0,-240.0,-2080.0,1437.0
2.0,13.0,-2.0,-1287.0,4000.0,403.0,-1323.0,1895.0
36.0,2.0,-14.0,-1301.0,4000.0,145.0,-941.0,1134.0
30.0,9.0,60.0,-1069.0,4000.0,876.0,-213.0,-549.0
66.0,-8.0,89.0,-554.0,4000.0,2060.0,-10.0,-2543.0
31.0,-55.0,56.0,167.0,4000.0,1769.0,389.0,-2478.0
49.0,-95.0,150.0,459.0,4000.0,1083.0,968.0,-824.0
78.0,-31.0,118.0,743.0,4000.0,758.0,1540.0,817.0
107.0,-6.0,71.0,598.0,4000.0,1033.0,2426.0,2544.0
147.0,23.0,61.0,465.0,4000.0,1388.0,3282.0,3390.0
56.0,-5.0,96.0,142.0,4000.0,1325.0,4000.0,3700.0
1.0,-78.0,72.0,138.0,4000.0,1994.0,4000.0,4000.0
-274.0,-23.0,7.0,394.0,4000.0,2373.0,4000.0,4000.0
-502.0,9.0,53.0,122.0,4000.0,2775.0,4000.0,4000.0
-16.0,63.0,79.0,42.0,4000.0,3148.0,4000.0,4000.0
498.0,135.0,149.0,300.0,4000.0,2953.0,4000.0,4000.0
668.0,143.0,123.0,245.0,4000.0,2744.0,2814.0,4000.0
825.0,103.0,23.0,63.0,1460.0,1969.0,1353.0,4000.0
725.0,81.0,109.0,327.0,-1259.0,1077.0,661.0,4000.0
424.0,40.0,187.0,785.0,-2549.0,-35.0,656.0,4000.0
163.0,-18.0,67.0,1814.0,-2729.0,-182.0,1084.0,4000.0
54.0,-80.0,-135.0,2281.0,-3066.0,237.0,1183.0,4000.0
-28.0,-107.0,-107.0,1302.0,-2057.0,538.0,933.0,4000.0
-75.0,-65.0,18.0,215.0,-376.0,394.0,1280.0,4000.0
-255.0,-68.0,48.0,-1027.0,1156.0,61.0,1540.0,4000.0
-506.0,-50.0,45.0,-1988.0,2630.0,408.0,1858.0,4000.0
-1140.0,-10.0,-5.0,-2284.0,2825.0,290.0,1931.0,4000.0
-1501.0,27.0,8.0,-2145.0,1644.0,-146.0,1866.0,4000.0
-641.0,-26.0,-14.0,-1703.0,60.0,-44.0,1510.0,4000.0
100.0,-85.0,-115.0,-1492.0,-621.0,57.0,1214.0,3676.0
556.0,-118.0,-112.0,-836.0,-1188.0,73.0,805.0,1924.0
825.0,-143.0,-67.0,-393.0,-2535.0,168.0,210.0,373.0
564.0,-137.0,0.0,-63.0,-2912.0,-57.0,400.0,-1206.0
268.0,-102.0,23.0,255.0,-2623.0,22.0,-224.0,-2682.0
-76.0,-29.0,5.0,221.0,-2676.0,420.0,-1201.0,-4000.0
-218.0,-20.0,-29.0,645.0,-2140.0,766.0,-1425.0,-4000.0
-307.0,25.0,-63.0,1059.0,-2212.0,1163.0,-1637.0,-4000.0
-374.0,36.0,-45.0,915.0,-2460.0,1390.0,-2465.0,-4000.0
-354.0,10.0,-43.0,598.0,-2794.0,1730.0,-2869.0,-4000.0
-388.0,55.0,-8.0,282.0,-3604.0,2047.0,-2988.0,-4000.0
-457.0,58.0,-2.0,-81.0,-4000.0,1839.0,-2776.0,-4000.0
-691.0,71.0,-38.0,-874.0,-4000.0,1824.0,-2530.0,-4000.0
-974.0,111.0,-72.0,-1470.0,-4000.0,2355.0,-3053.0,-4000.0
-771.0,122.0,-52.0,-1276.0,-4000.0,2485.0,-2740.0,-4000.0
-179.0,112.0,-14.0,-900.0,-4000.0,2046.0,-2530.0,-4000.0
238.0,117.0,3.0,-724.0,-4000.0,1547.0,-2740.0,-4000.0
530.0,90.0,95.0,-833.0,-2776.0,1018.0,-2675.0,-4000.0
660.0,58.0,118.0,-72.0,-566.0,348.0,-2508.0,-4000.0
668.0,95.0,75.0,767.0,1657.0,-716.0,-2237.0,-4000.0
522.0,78.0,17.0,402.0,3657.0,699.0,-2185.0,-3675.0
131.0,75.0,-31.0,-125.0,4000.0,2775.0,-1781.0,-2930.0
-453.0,110.0,-13.0,-515.0,4000.0,455.0,-1513.0,-2865.0
-1546.0,81.0,-12.0,-1015.0,4000.0,-358.0,-1370.0,-3112.0
-2061.0,95.0,-34.0,-1012.0,4000.0,693.0,-1076.0,-2283.0
-155.0,118.0,-46.0,-849.0,4000.0,-476.0,-933.0,-1396.0
1346.0,109.0,-61.0,-498.0,4000.0,-2592.0,-533.0,-427.0
1937.0,95.0,-60.0,425.0,4000.0,-1330.0,-383.0,731.0
2406.0,75.0,-29.0,1287.0,4000.0,2629.0,-371.0,1769.0
1569.0,93.0,-104.0,1110.0,4000.0,953.0,72.0,2948.0
1030.0,128.0,-182.0,687.0,4000.0,-457.0,269.0,3831.0
346.0,111.0,-111.0,728.0,4000.0,237.0,167.0,4000.0
43.0,84.0,-37.0,559.0,4000.0,303.0,160.0,4000.0
-135.0,78.0,-41.0,638.0,2581.0,-306.0,179.0,4000.0
-372.0,67.0,12.0,779.0,-4000.0,-1106.0,348.0,4000.0
-486.0,73.0,35.0,1302.0,-4000.0,-436.0,461.0,4000.0
-641.0,22.0,35.0,1860.0,-4000.0,-1140.0,384.0,4000.0
-518.0,-11.0,98.0,974.0,-4000.0,-1107.0,433.0,4000.0
-490.0,3.0,-11.0,-25.0,-4000.0,-1118.0,394.0,4000.0
-366.0,6.0,-52.0,-497.0,-4000.0,-555.0,352.0,4000.0
-484.0,2.0,-7.0,-1006.0,-4000.0,-373.0,620.0,4000.0
-307.0,-40.0,-30.0,-1049.0,-4000.0,-594.0,642.0,4000.0
-234.0,-86.0,-43.0,-1109.0,-4000.0,-200.0,526.0,4000.0
-237.0,-155.0,-114.0,-1211.0,-4000.0,-415.0,805.0,4000.0
-144.0,-234.0,-89.0,-639.0,-4000.0,-338.0,988.0,4000.0
-150.0,-181.0,-31.0,767.0,-4000.0,-1038.0,693.0,4000.0
19.0,-75.0,24.0,1827.0,-4000.0,-1140.0,563.0,3781.0
25.0,-118.0,42.0,684.0,-4000.0,-1140.0,576.0,3896.0
52.0,-77.0,31.0,-707.0,-4000.0,-838.0,702.0,3654.0
36.0,-42.0,79.0,-515.0,-4000.0,64.0,693.0,2804.0
81.0,-24.0,121.0,-37.0,-4000.0,1059.0,348.0,1924.0
147.0,20.0,93.0,276.0,-3995.0,1824.0,498.0,1476.0
185.0,3.0,-5.0,634.0,-902.0,1443.0,681.0,1199.0
391.0,50.0,-33.0,1601.0,812.0,1163.0,441.0,547.0
517.0,63.0,-31.0,2543.0,2825.0,1059.0,238.0,15.0
346.0,64.0,-128.0,1944.0,4000.0,766.0,376.0,-380.0
184.0,0.0,-277.0,1053.0,4000.0,641.0,481.0,-643.0
325.0,-50.0,-241.0,799.0,4000.0,749.0,274.0,-794.0
841.0,56.0,-135.0,-488.0,4000.0,750.0,246.0,-971.0
1116.0,40.0,-258.0,-2158.0,4000.0,400.0,394.0,-1129.0
1362.0,-2.0,-335.0,-2688.0,4000.0,-62.0,416.0,-1469.0
1254.0,20.0,-102.0,-2047.0,4000.0,-428.0,220.0,-1801.0
-266.0,-59.0,98.0,-1415.0,4000.0,-519.0,167.0,-1985.0
-1522.0,-137.0,61.0,-1166.0,4000.0,-255.0,201.0,-2179.0
-1430.0,-218.0,23.0,-1101.0,4000.0,-352.0,217.0,-2230.0
-1016.0,-253.0,55.0,-906.0,4000.0,-770.0,137.0,-2295.0
-1170.0,-248.0,52.0,-344.0,4000.0,-1196.0,141.0,-2293.0
-1717.0,-288.0,-4.0,-75.0,4000.0,-1526.0,164.0,-2146.0
-1214.0,-249.0,63.0,155.0,4000.0,-1030.0,106.0,-2176.0
-589.0,-209.0,24.0,-227.0,4000.0,-102.0,199.0,-2302.0
-619.0,-165.0,-69.0,-181.0,4000.0,394.0,148.0,-2395.0
-407.0,-118.0,-24.0,489.0,4000.0,-55.0,90.0,-2360.0
-162.0,-100.0,21.0,1167.0,4000.0,-537.0,53.0,-2425.0
121.0,-65.0,54.0,1249.0,4000.0,-434.0,79.0,-2460.0
-99.0,-2.0,-6.0,634.0,4000.0,-332.0,91.0,-2478.0
-476.0,73.0,-36.0,548.0,4000.0,-232.0,22.0,-2556.0
-654.0,180.0,-43.0,780.0,4000.0,-90.0,46.0,-2493.0
-1023.0,268.0,-78.0,2335.0,4000.0,-6.0,110.0,-2362.0
-850.0,286.0,-82.0,2772.0,4000.0,219.0,149.0,-2179.0
-118.0,244.0,-17.0,1501.0,4000.0,136.0,164.0,-2004.0
586.0,217.0,-28.0,1045.0,4000.0,-252.0,206.0,-1788.0
1065.0,162.0,-76.0,54.0,4000.0,-615.0,250.0,-1558.0
1999.0,116.0,-64.0,92.0,4000.0,-1623.0,232.0,-1339.0
2345.0,93.0,-10.0,980.0,2618.0,-2575.0,114.0,-1191.0
1596.0,36.0,77.0,69.0,676.0,-1715.0,208.0,-1046.0
789.0,31.0,126.0,-1686.0,-869.0,261.0,217.0,-973.0
56.0,-22.0,223.0,-2831.0,-1383.0,805.0,107.0,-940.0
-750.0,-43.0,260.0,-3115.0,-1265.0,433.0,149.0,-818.0
-2076.0,-52.0,246.0,-2778.0,-869.0,-434.0,246.0,-791.0
-4000.0,-101.0,270.0,-1890.0,-263.0,-1010.0,441.0,-750.0
-4000.0,-89.0,215.0,-900.0,208.0,-750.0,376.0,-687.0
-1218.0,-49.0,124.0,590.0,738.0,-94.0,398.0,-627.0
2534.0,-44.0,-18.0,1450.0,1853.0,921.0,616.0,-734.0
2974.0,-97.0,-83.0,980.0,3983.0,1033.0,557.0,-833.0
4000.0,-136.0,33.0,402.0,4000.0,628.0,527.0,-614.0
4000.0,-151.0,39.0,-498.0,4000.0,66.0,464.0,-325.0
3378.0,-64.0,39.0,-1370.0,4000.0,-810.0,319.0,-132.0
2728.0,132.0,85.0,-1565.0,4000.0,-1050.0,138.0,135.0
920.0,254.0,125.0,-1890.0,4000.0,-114.0,54.0,95.0
-427.0,319.0,113.0,-2158.0,4000.0,1214.0,-94.0,-235.0
-1130.0,294.0,98.0,-1740.0,4000.0,2112.0,-255.0,4.0
277.0,206.0,74.0,-1109.0,4000.0,1656.0,-224.0,479.0
986.0,146.0,27.0,-301.0,4000.0,1018.0,-222.0,515.0
-2.0,43.0,60.0,131.0,3916.0,506.0,-169.0,409.0
-1286.0,103.0,17.0,533.0,4000.0,376.0,-163.0,303.0
-1221.0,200.0,-1.0,1225.0,4000.0,758.0,-235.0,41.0
-645.0,251.0,17.0,708.0,3722.0,469.0,-110.0,-56.0
-730.0,225.0,59.0,447.0,3208.0,339.0,-7.0,-254.0
-489.0,79.0,-4.0,1683.0,3127.0,-55.0,-15.0,-529.0
-1162.0,-14.0,-167.0,950.0,3464.0,268.0,86.0,-647.0
-1809.0,-100.0,-238.0,-1435.0,4000.0,427.0,-2.0,-775.0
-1560.0,-96.0,-190.0,-2349.0,4000.0,-419.0,93.0,-840.0
-1267.0,-113.0,-75.0,-1686.0,4000.0,-447.0,194.0,-1105.0
-743.0,-153.0,115.0,370.0,3281.0,-273.0,148.0,-1383.0
595.0,-176.0,184.0,2270.0,2556.0,-194.0,460.0,-1469.0
2146.0,-209.0,60.0,2452.0,2254.0,376.0,301.0,-1540.0
116.0,-164.0,-214.0,2916.0,2019.0,1273.0,176.0,-1534.0
-3347.0,-169.0,-469.0,4000.0,1669.0,876.0,155.0,-1439.0
-4000.0,-96.0,-379.0,2738.0,817.0,-222.0,-93.0,-1206.0
-4000.0,-44.0,-277.0,-318.0,-80.0,25.0,-63.0,-818.0
1476.0,-68.0,-105.0,-645.0,-95.0,817.0,-250.0,-417.0
4000.0,-112.0,27.0,-442.0,110.0,441.0,-472.0,-168.0
3804.0,-202.0,-89.0,-540.0,-663.0,-767.0,-585.0,-72.0
4000.0,-159.0,-93.0,-902.0,-1498.0,-1396.0,-510.0,78.0
1450.0,-159.0,142.0,-243.0,-1253.0,-2921.0,-459.0,674.0
2911.0,-207.0,272.0,47.0,-608.0,-3376.0,-723.0,1118.0
1423.0,-112.0,152.0,-849.0,-51.0,-2119.0,-789.0,1502.0
-1605.0,-9.0,198.0,-287.0,-384.0,-1532.0,-737.0,2248.0
-4000.0,15.0,189.0,-437.0,-1228.0,-1670.0,-920.0,2966.0
-4000.0,127.0,179.0,122.0,-1951.0,-2313.0,-867.0,3617.0
-555.0,341.0,83.0,112.0,-2676.0,-2178.0,-384.0,4000.0
1677.0,457.0,-180.0,-764.0,-3380.0,-1727.0,62.0,4000.0
4000.0,475.0,-109.0,-348.0,-3986.0,-485.0,427.0,4000.0
4000.0,334.0,31.0,87.0,-4000.0,538.0,563.0,4000.0
1226.0,188.0,99.0,187.0,-3753.0,339.0,274.0,4000.0
686.0,194.0,88.0,363.0,-3391.0,300.0,109.0,4000.0
-220.0,163.0,122.0,435.0,-2996.0,791.0,76.0,3846.0
914.0,76.0,137.0,512.0,-3001.0,1163.0,-139.0,2689.0
1310.0,-85.0,128.0,980.0,-3391.0,1669.0,-477.0,1476.0
1791.0,-131.0,57.0,1053.0,-3327.0,2230.0,-1006.0,182.0
751.0,-98.0,-83.0,1501.0,-3539.0,2224.0,-1076.0,-1392.0
-710.0,-175.0,-314.0,2673.0,-4000.0,2485.0,-253.0,-3060.0
-550.0,-171.0,-415.0,3243.0,-4000.0,2308.0,-373.0,-4000.0
-182.0,-48.0,-414.0,2152.0,-4000.0,1473.0,-1432.0,-4000.0
-128.0,81.0,-298.0,763.0,-4000.0,722.0,-1684.0,-4000.0
-451.0,131.0,-75.0,-1096.0,-4000.0,882.0,-908.0,-4000.0
530.0,119.0,-154.0,-2778.0,-4000.0,1352.0,1866.0,-2876.0
834.0,-32.0,39.0,-2896.0,-4000.0,1473.0,4000.0,-415.0
1293.0,-162.0,158.0,-1557.0,-3521.0,1148.0,3795.0,1521.0
1384.0,-179.0,207.0,-1044.0,-3682.0,607.0,3075.0,3291.0
1297.0,-259.0,311.0,-3233.0,-3521.0,1388.0,2101.0,4000.0
825.0,-318.0,49.0,-3156.0,-2664.0,2124.0,732.0,3896.0
157.0,-340.0,-166.0,-1549.0,-2729.0,2243.0,134.0,2419.0
-359.0,-299.0,-229.0,-1290.0,-4000.0,1785.0,-149.0,1248.0
-1084.0,-203.0,-282.0,-1870.0,-3899.0,882.0,415.0,1384.0
-1271.0,-122.0,-212.0,-2790.0,-1980.0,-716.0,1345.0,3161.0
-1392.0,-80.0,199.0,-3250.0,-3456.0,-2063.0,1899.0,4000.0
-974.0,-40.0,110.0,-3623.0,-3669.0,87.0,1854.0,4000.0
-795.0,-26.0,-54.0,-2145.0,-4000.0,1247.0,948.0,4000.0
-482.0,-19.0,335.0,762.0,-4000.0,-106.0,-570.0,4000.0
-301.0,4.0,463.0,2840.0,-4000.0,-97.0,-796.0,3999.0
-388.0,34.0,267.0,2722.0,-4000.0,-406.0,-859.0,2119.0
-443.0,77.0,-121.0,2075.0,-4000.0,-2338.0,-1586.0,1085.0
-52.0,117.0,-408.0,2592.0,-3507.0,-3182.0,-3407.0,1568.0
346.0,162.0,-393.0,2281.0,-795.0,-2206.0,-2512.0,3064.0
314.0,120.0,-363.0,1786.0,2889.0,-2245.0,2101.0,4000.0
525.0,84.0,-137.0,1631.0,4000.0,-1818.0,1670.0,4000.0
342.0,70.0,-16.0,1234.0,4000.0,-657.0,726.0,4000.0
204.0,63.0,105.0,771.0,3334.0,-1747.0,1052.0,3226.0
-3.0,63.0,133.0,-32.0,1409.0,-1821.0,1390.0,-736.0
-3.0,18.0,61.0,-594.0,817.0,766.0,1905.0,-4000.0
51.0,-31.0,42.0,-194.0,-1703.0,1270.0,441.0,-4000.0
196.0,-66.0,-14.0,125.0,-3456.0,888.0,661.0,-4000.0
383.0,-70.0,83.0,-86.0,-2818.0,805.0,301.0,-4000.0
287.0,-66.0,54.0,-370.0,-1820.0,280.0,329.0,-4000.0
296.0,-118.0,113.0,-265.0,-2121.0,-47.0,155.0,-4000.0
130.0,-158.0,199.0,287.0,-2289.0,-596.0,-121.0,-4000.0
74.0,-177.0,175.0,577.0,-2387.0,-810.0,13.0,-4000.0
9.0,-212.0,186.0,613.0,-1795.0,-1115.0,-555.0,-4000.0
9.0,-202.0,118.0,559.0,-909.0,-932.0,-652.0,-4000.0
-7.0,-165.0,-30.0,490.0,-421.0,-676.0,-646.0,-4000.0
44.0,-121.0,-290.0,264.0,-125.0,-414.0,-113.0,-4000.0
107.0,-105.0,-255.0,40.0,-803.0,-262.0,-179.0,-4000.0
20.0,-95.0,-55.0,-80.0,87.0,-262.0,-43.0,-2147.0
-38.0,-72.0,-88.0,-198.0,902.0,-189.0,-118.0,1187.0
-108.0,-75.0,-212.0,-448.0,170.0,-289.0,-50.0,3996.0
-110.0,-68.0,-263.0,-681.0,140.0,-206.0,37.0,4000.0
-169.0,-12.0,-225.0,-755.0,-88.0,376.0,-42.0,4000.0
-162.0,30.0,-217.0,-690.0,-679.0,1059.0,18.0,4000.0
-150.0,227.0,53.0,-397.0,-234.0,345.0,-241.0,4000.0
-168.0,607.0,331.0,-69.0,-470.0,-596.0,-162.0,4000.0
-118.0,882.0,243.0,142.0,-46.0,-548.0,-247.0,4000.0
-140.0,973.0,260.0,44.0,815.0,-637.0,-210.0,4000.0
-148.0,1136.0,130.0,-115.0,1352.0,-1486.0,-250.0,4000.0
-126.0,1266.0,-107.0,-25.0,2320.0,-2041.0,-327.0,4000.0
-96.0,1049.0,-362.0,134.0,2776.0,-1330.0,-337.0,4000.0
-97.0,615.0,-186.0,242.0,3085.0,-1424.0,-363.0,4000.0
-132.0,-141.0,349.0,533.0,3215.0,-2119.0,-350.0,4000.0
-189.0,-791.0,241.0,484.0,2813.0,-584.0,-355.0,4000.0
-258.0,-1206.0,195.0,362.0,1666.0,888.0,-159.0,4000.0
-282.0,-1396.0,272.0,337.0,1669.0,455.0,-41.0,1326.0
-255.0,-1350.0,-32.0,125.0,2100.0,170.0,84.0,-679.0
-311.0,-1350.0,-615.0,-85.0,2189.0,2177.0,246.0,-1790.0
-193.0,-570.0,-1214.0,-289.0,2745.0,2905.0,-424.0,-3127.0
56.0,63.0,-1404.0,-143.0,2683.0,1592.0,-1454.0,-3732.0
52.0,-163.0,-1069.0,-78.0,2825.0,1200.0,-1507.0,-2277.0
-84.0,-242.0,-288.0,-182.0,2646.0,1734.0,-1438.0,-1120.0
-280.0,-566.0,671.0,-323.0,1352.0,2359.0,-1377.0,-541.0
-258.0,-334.0,1314.0,-683.0,47.0,3658.0,256.0,556.0
-146.0,84.0,1192.0,-686.0,-677.0,4000.0,1899.0,723.0
-90.0,-50.0,996.0,-430.0,-1455.0,3914.0,1341.0,695.0
18.0,388.0,309.0,-252.0,-1817.0,3069.0,181.0,-205.0
99.0,989.0,-607.0,-98.0,-1756.0,1769.0,-18.0,-1234.0
275.0,1778.0,-2234.0,-70.0,-1292.0,-489.0,-182.0,-1644.0
273.0,3104.0,-3473.0,81.0,-152.0,-2053.0,-346.0,-2930.0
241.0,4000.0,-1538.0,207.0,505.0,-1444.0,-261.0,-4000.0
281.0,3966.0,988.0,292.0,1482.0,-641.0,-464.0,-4000.0
316.0,3185.0,2746.0,485.0,2125.0,-1261.0,-449.0,-4000.0
325.0,1682.0,3885.0,361.0,3269.0,-1097.0,-452.0,-4000.0
169.0,-566.0,3564.0,129.0,4000.0,-39.0,-465.0,-4000.0
59.0,-1935.0,2811.0,142.0,4000.0,-2300.0,-473.0,-4000.0
-49.0,-2612.0,1729.0,-59.0,4000.0,-2803.0,-428.0,-4000.0
-213.0,-2190.0,598.0,-379.0,4000.0,-1701.0,-290.0,-3268.0
-258.0,-281.0,-324.0,-384.0,4000.0,-2867.0,-373.0,-2928.0
82.0,1583.0,-1028.0,-282.0,4000.0,137.0,-595.0,-1725.0
586.0,933.0,-1268.0,-114.0,4000.0,336.0,-723.0,-1578.0
733.0,-1252.0,-2241.0,-94.0,4000.0,-1850.0,-342.0,-875.0
487.0,-2450.0,-2782.0,-76.0,4000.0,-2209.0,-1197.0,-431.0
180.0,-3472.0,-1992.0,-21.0,4000.0,-1989.0,-2340.0,174.0
-274.0,-3424.0,-2576.0,28.0,4000.0,1344.0,-817.0,629.0
-674.0,-2951.0,-3756.0,221.0,4000.0,2421.0,1575.0,1026.0
-763.0,-1590.0,-4000.0,423.0,4000.0,-1617.0,1475.0,1660.0
-599.0,1908.0,-4000.0,441.0,4000.0,-2657.0,785.0,1859.0
-185.0,4000.0,-4000.0,394.0,4000.0,-293.0,3838.0,2118.0
322.0,4000.0,-4000.0,245.0,4000.0,2840.0,3788.0,1916.0
673.0,3571.0,-4000.0,-178.0,4000.0,4000.0,70.0,1924.0
395.0,2867.0,-4000.0,-316.0,4000.0,4000.0,616.0,1793.0
121.0,2556.0,-906.0,-263.0,4000.0,3231.0,17.0,1621.0
3.0,-53.0,4000.0,-381.0,4000.0,-159.0,-475.0,1316.0
-180.0,-3461.0,4000.0,-659.0,1655.0,170.0,-355.0,682.0
-467.0,-4000.0,4000.0,-584.0,-2860.0,2836.0,-977.0,241.0
-909.0,-4000.0,4000.0,-318.0,-4000.0,497.0,-615.0,-109.0
-1006.0,-4000.0,4000.0,-391.0,-4000.0,-973.0,-1136.0,-72.0
-475.0,3210.0,4000.0,-243.0,-4000.0,-1916.0,-986.0,-111.0
30.0,4000.0,4000.0,-232.0,-4000.0,-2725.0,-1266.0,-247.0
399.0,4000.0,4000.0,-314.0,-4000.0,-1502.0,-1332.0,-170.0
705.0,-75.0,1900.0,12.0,-4000.0,-526.0,-1397.0,-88.0
725.0,-2436.0,-4000.0,310.0,-4000.0,-2750.0,-1397.0,267.0
820.0,-2304.0,-4000.0,465.0,-4000.0,-2351.0,-1318.0,804.0
595.0,-4000.0,-4000.0,459.0,-4000.0,-384.0,-1271.0,1182.0
147.0,-4000.0,-1149.0,441.0,-4000.0,455.0,-998.0,1568.0
-425.0,-4000.0,2651.0,503.0,-4000.0,738.0,-1163.0,2095.0
-698.0,-4000.0,3316.0,345.0,-4000.0,-1265.0,-1168.0,2445.0
-331.0,-4000.0,-563.0,34.0,-4000.0,-1511.0,-1206.0,2313.0
-32.0,-2692.0,-4000.0,-127.0,-4000.0,527.0,-1122.0,1924.0
102.0,-1546.0,-4000.0,-154.0,-4000.0,2759.0,-1193.0,352.0
215.0,-2125.0,-4000.0,12.0,-4000.0,506.0,-1228.0,-1590.0
334.0,56.0,-4000.0,108.0,-4000.0,-459.0,-1228.0,-1644.0
416.0,4000.0,-4000.0,-19.0,-4000.0,732.0,-876.0,-1677.0
316.0,4000.0,-4000.0,16.0,-3445.0,-710.0,-375.0,-2629.0
214.0,4000.0,-4000.0,7.0,-2122.0,-3894.0,-66.0,-4000.0
346.0,4000.0,-4000.0,-5.0,-132.0,-3852.0,-227.0,-4000.0
369.0,4000.0,-4000.0,24.0,1796.0,-1183.0,-522.0,-3253.0
180.0,2689.0,4000.0,-94.0,2842.0,-1526.0,-344.0,-2425.0
-457.0,-1747.0,4000.0,-101.0,3660.0,2568.0,94.0,-1213.0
-1153.0,-4000.0,4000.0,-84.0,4000.0,4000.0,767.0,-818.0
-1105.0,-4000.0,4000.0,-55.0,4000.0,-546.0,832.0,-398.0
-869.0,-4000.0,4000.0,-93.0,4000.0,1124.0,856.0,230.0
-498.0,-1643.0,4000.0,-202.0,4000.0,2189.0,844.0,395.0
-15.0,4000.0,4000.0,-308.0,4000.0,-190.0,619.0,850.0
177.0,4000.0,-954.0,-365.0,4000.0,-1511.0,394.0,1263.0
66.0,530.0,-4000.0,-307.0,4000.0,-2386.0,510.0,1859.0
-172.0,-2904.0,-4000.0,-152.0,4000.0,1604.0,801.0,2118.0
-150.0,-3932.0,-4000.0,-36.0,4000.0,2694.0,1189.0,1924.0
-5.0,-2176.0,-4000.0,-55.0,4000.0,1328.0,1463.0,1372.0
-42.0,-1135.0,-753.0,73.0,4000.0,-98.0,1201.0,1792.0
70.0,-887.0,368.0,155.0,4000.0,-1440.0,1007.0,2154.0
261.0,328.0,-1947.0,410.0,4000.0,1409.0,673.0,1307.0
157.0,-253.0,-4000.0,754.0,4000.0,1377.0,244.0,851.0
209.0,94.0,-4000.0,864.0,4000.0,219.0,-84.0,1346.0
167.0,3178.0,-4000.0,968.0,4000.0,-247.0,238.0,2051.0
-50.0,4000.0,-4000.0,864.0,4000.0,-680.0,942.0,1818.0
-73.0,4000.0,-4000.0,836.0,4000.0,394.0,948.0,1065.0
-266.0,4000.0,-4000.0,645.0,4000.0,93.0,498.0,18.0
-75.0,2984.0,-4000.0,431.0,4000.0,-1103.0,429.0,-401.0
194.0,2819.0,-4000.0,393.0,4000.0,-733.0,529.0,-553.0
71.0,80.0,-4000.0,366.0,4000.0,241.0,400.0,-914.0
147.0,-2940.0,-4000.0,417.0,4000.0,-224.0,237.0,-1274.0
34.0,-2015.0,-4000.0,276.0,4000.0,-1636.0,426.0,-582.0
-221.0,138.0,-4000.0,63.0,4000.0,-4000.0,1199.0,-427.0
-339.0,1747.0,-4000.0,-152.0,4000.0,-4000.0,1353.0,-1135.0
-180.0,1765.0,-4000.0,-391.0,4000.0,-261.0,858.0,-824.0
-152.0,908.0,-3717.0,-770.0,3867.0,1907.0,193.0,-928.0
-12.0,-960.0,4000.0,-1049.0,2972.0,3792.0,-266.0,-537.0
235.0,-1870.0,4000.0,-914.0,1799.0,3720.0,494.0,-1078.0
169.0,-3898.0,4000.0,-819.0,778.0,2877.0,1316.0,-1404.0
370.0,-4000.0,4000.0,-947.0,-64.0,1445.0,1033.0,-1170.0
408.0,-3932.0,4000.0,-962.0,-751.0,-2754.0,595.0,-750.0
570.0,-1472.0,4000.0,-826.0,-1333.0,-2856.0,642.0,-313.0
689.0,2819.0,4000.0,-685.0,-1584.0,-982.0,702.0,-254.0
543.0,4000.0,4000.0,-645.0,-2122.0,-1183.0,1205.0,503.0
184.0,4000.0,4000.0,-652.0,-2859.0,-710.0,1801.0,723.0
-217.0,1206.0,4000.0,-527.0,-3066.0,113.0,1474.0,1248.0
-311.0,-1802.0,-4000.0,-336.0,-2676.0,268.0,1214.0,1260.0
-706.0,-3383.0,-4000.0,-103.0,-2922.0,-1205.0,1353.0,1057.0
-744.0,-4000.0,-4000.0,77.0,-2806.0,-1725.0,349.0,825.0
-247.0,-4000.0,-4000.0,236.0,-2409.0,-783.0,-1441.0,745.0
167.0,-4000.0,-4000.0,430.0,-2484.0,179.0,-2182.0,1259.0
494.0,-1783.0,-3689.0,548.0,-2406.0,1205.0,-1739.0,1633.0
573.0,1012.0,-1617.0,580.0,-2472.0,2254.0,-1246.0,1859.0
399.0,1553.0,-1237.0,518.0,-2403.0,2577.0,-1519.0,2025.0
433.0,2039.0,-1881.0,490.0,-2460.0,1443.0,-1690.0,2677.0
275.0,4000.0,-2835.0,467.0,-2537.0,401.0,-1250.0,3275.0
-207.0,4000.0,-4000.0,356.0,-2664.0,63.0,-530.0,3535.0
-618.0,4000.0,-4000.0,207.0,-2605.0,336.0,20.0,3275.0
-951.0,2791.0,-4000.0,144.0,-2277.0,628.0,390.0,3031.0
-1131.0,-1932.0,-3863.0,125.0,-2122.0,376.0,1326.0,2705.0
-871.0,-4000.0,-1667.0,-2.0,-2044.0,53.0,1341.0,2237.0
-246.0,-4000.0,-906.0,-162.0,-1888.0,50.0,404.0,1728.0
21.0,-4000.0,-3303.0,-195.0,-1649.0,-93.0,587.0,1272.0
180.0,-4000.0,-4000.0,2.0,-1292.0,172.0,1345.0,798.0
370.0,-4000.0,-4000.0,59.0,-1007.0,423.0,1267.0,-183.0
686.0,-2822.0,-4000.0,-125.0,-860.0,95.0,788.0,-853.0
733.0,-233.0,-4000.0,-279.0,-658.0,-234.0,506.0,-1495.0
60.0,1311.0,-4000.0,-455.0,-360.0,-584.0,791.0,-1856.0
-302.0,4000.0,-4000.0,-486.0,15.0,-1715.0,921.0,-2151.0
-151.0,4000.0,-606.0,-336.0,428.0,-2481.0,506.0,-2567.0
63.0,4000.0,-1362.0,-223.0,680.0,-1831.0,-145.0,-2491.0
-23.0,2168.0,-438.0,-253.0,597.0,-1850.0,-839.0,-2324.0
-68.0,376.0,4000.0,-291.0,505.0,-2054.0,-986.0,-1826.0
-8.0,9.0,4000.0,-206.0,570.0,-2235.0,-1076.0,-1148.0
-193.0,-479.0,4000.0,-288.0,627.0,-1432.0,-882.0,-665.0
-181.0,-360.0,4000.0,-332.0,896.0,200.0,-1123.0,-274.0
-27.0,2036.0,4000.0,-432.0,967.0,628.0,-1702.0,286.0
48.0,4000.0,3871.0,-430.0,522.0,802.0,-1258.0,772.0
-40.0,4000.0,1171.0,-154.0,104.0,163.0,-1054.0,896.0
-27.0,2010.0,-3718.0,16.0,119.0,-41.0,-797.0,700.0
74.0,95.0,-4000.0,84.0,843.0,261.0,-1006.0,326.0
-42.0,-2501.0,-4000.0,168.0,1279.0,988.0,-2080.0,332.0
15.0,-3331.0,-4000.0,329.0,1071.0,1981.0,-2270.0,798.0
96.0,-2876.0,-3080.0,394.0,1539.0,2251.0,-2687.0,1650.0
134.0,-1192.0,2094.0,337.0,1533.0,2124.0,-3236.0,1688.0
-76.0,1136.0,4000.0,252.0,961.0,1970.0,-3078.0,1121.0
-223.0,30.0,2395.0,251.0,570.0,1994.0,-3050.0,1728.0
-205.0,-1310.0,-2397.0,280.0,-160.0,1604.0,-1952.0,2901.0
-352.0,-2204.0,-4000.0,269.0,-700.0,1266.0,-1071.0,3653.0
-370.0,-2951.0,-4000.0,298.0,-947.0,701.0,-281.0,4000.0
-180.0,-2627.0,-4000.0,246.0,-1584.0,339.0,1143.0,4000.0
69.0,-1415.0,-1427.0,191.0,-2729.0,40.0,1996.0,4000.0
86.0,-1415.0,-1203.0,142.0,-2537.0,-226.0,3708.0,3896.0
128.0,-940.0,-2934.0,37.0,-1980.0,-228.0,3917.0,3552.0
99.0,973.0,-4000.0,-62.0,-1120.0,-240.0,2112.0,3144.0
93.0,1173.0,-2383.0,-88.0,505.0,-92.0,1406.0,2245.0
40.0,770.0,2266.0,-141.0,554.0,-4.0,1164.0,1598.0
-112.0,569.0,4000.0,-202.0,888.0,171.0,1353.0,890.0
-143.0,672.0,4000.0,-178.0,1032.0,174.0,2425.0,-166.0
13.0,1388.0,4000.0,-96.0,-803.0,158.0,2843.0,-1504.0
238.0,494.0,4000.0,-93.0,-2753.0,119.0,2777.0,-3321.0
93.0,353.0,4000.0,-167.0,-3148.0,-49.0,2309.0,-4000.0
23.0,1206.0,1387.0,-127.0,-1980.0,-325.0,1510.0,-4000.0
50.0,542.0,923.0,-72.0,-1573.0,-696.0,1326.0,-4000.0
40.0,846.0,-841.0,11.0,-2356.0,-852.0,1010.0,-4000.0
36.0,410.0,-2770.0,42.0,-2340.0,-706.0,1033.0,-4000.0
63.0,-358.0,-4000.0,57.0,-1007.0,-285.0,1141.0,-4000.0
358.0,371.0,-4000.0,50.0,415.0,141.0,968.0,-4000.0
595.0,1396.0,-4000.0,14.0,2360.0,461.0,1214.0,-4000.0
595.0,1880.0,-4000.0,25.0,1970.0,554.0,2049.0,-4000.0
576.0,1128.0,-4000.0,36.0,-662.0,457.0,2843.0,-4000.0
358.0,640.0,-2303.0,107.0,-621.0,231.0,2777.0,-4000.0
175.0,353.0,-651.0,268.0,-66.0,131.0,3983.0,-4000.0
39.0,-125.0,318.0,406.0,-1609.0,133.0,4000.0,-4000.0
-313.0,-919.0,957.0,297.0,-3929.0,13.0,4000.0,-4000.0
-566.0,-1415.0,1171.0,160.0,-3917.0,-41.0,2761.0,-4000.0
-589.0,-1342.0,1175.0,69.0,-1441.0,31.0,256.0,-4000.0
-354.0,-1206.0,83.0,39.0,-516.0,25.0,-106.0,-2193.0
-185.0,-858.0,-1407.0,61.0,-3701.0,-51.0,490.0,-320.0
-136.0,-468.0,-1700.0,3.0,-4000.0,106.0,457.0,1704.0
-244.0,-429.0,-1617.0,-62.0,-4000.0,265.0,-598.0,2937.0
-253.0,-183.0,-1581.0,-136.0,-4000.0,510.0,-2560.0,3144.0
-61.0,116.0,-490.0,-163.0,-4000.0,597.0,-2311.0,4000.0
-34.0,31.0,3072.0,-233.0,-4000.0,420.0,-483.0,4000.0
45.0,-55.0,4000.0,-388.0,-4000.0,311.0,889.0,4000.0
30.0,-68.0,4000.0,-448.0,-4000.0,113.0,1854.0,4000.0
-25.0,-88.0,4000.0,-409.0,-4000.0,-12.0,1469.0,4000.0
-85.0,-360.0,4000.0,-301.0,-4000.0,-186.0,-98.0,4000.0
4.0,-364.0,2347.0,-198.0,-4000.0,-419.0,431.0,4000.0
88.0,-281.0,-224.0,-206.0,-4000.0,-750.0,2696.0,4000.0
55.0,-275.0,-2851.0,-284.0,-4000.0,-852.0,3038.0,3847.0
110.0,-172.0,-3861.0,-336.0,-4000.0,-698.0,1512.0,3096.0
35.0,-261.0,-4000.0,-389.0,-4000.0,-611.0,-313.0,2754.0
