-177.0,-131.0,-1881.0,-306.0,4000.0,-1115.0,-811.0,1621.0
673.0,-164.0,1574.0,-1166.0,3623.0,-1330.0,-1123.0,825.0
825.0,-182.0,4000.0,-1216.0,4000.0,-1582.0,-1312.0,978.0
790.0,-196.0,1283.0,-679.0,4000.0,-1526.0,-1317.0,6.0
386.0,-224.0,762.0,-498.0,4000.0,-1180.0,-1309.0,-649.0
107.0,-218.0,3316.0,-487.0,4000.0,-912.0,-1246.0,-1180.0
-148.0,-204.0,254.0,7.0,4000.0,-1030.0,-1291.0,-3448.0
-185.0,-177.0,-4000.0,950.0,4000.0,-976.0,-1468.0,-4000.0
-238.0,-148.0,-4000.0,1957.0,4000.0,-572.0,-1358.0,-4000.0
-296.0,-145.0,-4000.0,2390.0,4000.0,-733.0,-1271.0,-2193.0
-337.0,-114.0,-4000.0,2787.0,4000.0,-1495.0,-1122.0,-2502.0
-476.0,-92.0,-4000.0,2981.0,4000.0,-1487.0,-1006.0,-2983.0
-547.0,-69.0,-1765.0,2840.0,4000.0,-297.0,-835.0,-853.0
-553.0,-33.0,1094.0,2122.0,4000.0,716.0,-428.0,-353.0
-331.0,-30.0,4000.0,1277.0,4000.0,1182.0,-832.0,642.0
-234.0,-2.0,3007.0,106.0,4000.0,1539.0,-1076.0,19.0
-207.0,20.0,-542.0,-1370.0,4000.0,1799.0,-685.0,538.0
-108.0,34.0,-3330.0,-2375.0,4000.0,2240.0,-790.0,1912.0
-51.0,49.0,-4000.0,-3428.0,4000.0,2363.0,-1071.0,2154.0
12.0,46.0,-4000.0,-2879.0,4000.0,2189.0,-652.0,1846.0
51.0,30.0,-3539.0,-978.0,4000.0,2177.0,-355.0,1541.0
53.0,17.0,-2074.0,158.0,4000.0,1981.0,-284.0,1338.0
36.0,44.0,-371.0,85.0,4000.0,1733.0,25.0,399.0
66.0,65.0,1094.0,-379.0,4000.0,746.0,-143.0,-507.0
62.0,52.0,3112.0,-1174.0,4000.0,445.0,-235.0,-1456.0
63.0,70.0,4000.0,-1935.0,4000.0,1140.0,-163.0,-1540.0
55.0,75.0,4000.0,-1638.0,1053.0,1187.0,-355.0,-1049.0
44.0,58.0,4000.0,-1589.0,-2400.0,1148.0,-284.0,61.0
90.0,73.0,2330.0,-1536.0,-4000.0,1521.0,156.0,811.0
62.0,95.0,-542.0,-971.0,-4000.0,2060.0,464.0,322.0
2.0,128.0,-1041.0,-105.0,-4000.0,2308.0,759.0,174.0
-87.0,114.0,-2450.0,645.0,-4000.0,1994.0,1125.0,-8.0
-94.0,80.0,-2092.0,1045.0,-4000.0,1795.0,1288.0,-162.0
10.0,74.0,-1348.0,1241.0,-4000.0,1473.0,1280.0,-248.0
61.0,69.0,-13.0,915.0,-4000.0,1669.0,1228.0,-431.0
123.0,78.0,-1302.0,655.0,-4000.0,1854.0,962.0,-914.0
149.0,90.0,-1362.0,720.0,-4000.0,1183.0,753.0,-1070.0
149.0,84.0,-628.0,622.0,-4000.0,1026.0,1010.0,-555.0
134.0,71.0,433.0,626.0,-4000.0,738.0,954.0,58.0
105.0,43.0,1257.0,1021.0,-4000.0,368.0,962.0,947.0
139.0,52.0,958.0,1184.0,-4000.0,-107.0,1519.0,1663.0
163.0,52.0,1509.0,1566.0,-4000.0,-982.0,1866.0,2479.0
109.0,71.0,1387.0,1563.0,-4000.0,-2181.0,1825.0,2640.0
50.0,87.0,1871.0,1216.0,-4000.0,-3144.0,1843.0,3404.0
72.0,70.0,1497.0,1169.0,-2116.0,-3966.0,1548.0,4000.0
46.0,77.0,781.0,980.0,222.0,-4000.0,1255.0,4000.0
41.0,82.0,-133.0,929.0,2113.0,-4000.0,1271.0,4000.0
56.0,128.0,-393.0,655.0,3859.0,-4000.0,954.0,731.0
92.0,132.0,-306.0,77.0,4000.0,-4000.0,1019.0,-1839.0
89.0,102.0,-1192.0,-810.0,4000.0,-4000.0,1396.0,-2741.0
41.0,79.0,-2318.0,-1626.0,4000.0,-4000.0,1575.0,-3138.0
34.0,47.0,-1779.0,-1610.0,4000.0,-3440.0,1228.0,-2930.0
-8.0,29.0,1170.0,-1638.0,2439.0,-1847.0,738.0,-758.0
-58.0,12.0,2221.0,-1988.0,-1234.0,248.0,759.0,848.0
-60.0,33.0,-16.0,-1722.0,-3586.0,1287.0,702.0,1598.0
-52.0,23.0,-4000.0,-984.0,-2598.0,1669.0,749.0,-1208.0
-79.0,31.0,-4000.0,-584.0,-2921.0,2224.0,962.0,-4000.0
-58.0,36.0,-781.0,-190.0,-4000.0,2319.0,779.0,-4000.0
-38.0,-1.0,3696.0,370.0,-4000.0,2288.0,506.0,-4000.0
-14.0,9.0,4000.0,377.0,-2122.0,2485.0,858.0,-4000.0
1.0,-2.0,4000.0,335.0,2842.0,2971.0,995.0,-4000.0
-2.0,-3.0,957.0,538.0,4000.0,2971.0,543.0,-883.0
7.0,0.0,-943.0,240.0,4000.0,3148.0,492.0,4000.0
46.0,-14.0,-1478.0,32.0,4000.0,3474.0,681.0,4000.0
51.0,9.0,-494.0,-17.0,4000.0,3835.0,934.0,2484.0
21.0,5.0,2356.0,3.0,4000.0,4000.0,738.0,2357.0
90.0,6.0,4000.0,199.0,4000.0,4000.0,416.0,-753.0
110.0,28.0,4000.0,419.0,-3262.0,4000.0,362.0,1012.0
100.0,40.0,4000.0,483.0,-4000.0,4000.0,217.0,2948.0
99.0,50.0,1296.0,260.0,-4000.0,4000.0,359.0,1325.0
69.0,40.0,-971.0,8.0,-4000.0,4000.0,348.0,-1746.0
14.0,-14.0,-2124.0,-724.0,-4000.0,4000.0,207.0,-3321.0
-36.0,-43.0,-2202.0,-1329.0,-4000.0,4000.0,144.0,-4000.0
-62.0,-40.0,-2607.0,-1329.0,-4000.0,4000.0,51.0,-3873.0
-49.0,-41.0,-4000.0,-1287.0,-4000.0,4000.0,8.0,-3385.0
6.0,-21.0,-4000.0,-1161.0,-3001.0,4000.0,140.0,-3462.0
10.0,-38.0,-4000.0,-906.0,-1359.0,3529.0,208.0,-2518.0
31.0,-26.0,-3730.0,-678.0,212.0,2809.0,297.0,-2016.0
20.0,-35.0,-670.0,-686.0,672.0,2190.0,619.0,-482.0
-13.0,-37.0,1303.0,-222.0,1579.0,1573.0,660.0,-36.0
28.0,-60.0,2859.0,838.0,2568.0,902.0,832.0,1319.0
11.0,-84.0,4000.0,2151.0,3788.0,54.0,702.0,1134.0
-6.0,-68.0,3648.0,4000.0,4000.0,-1070.0,-24.0,955.0
2.0,-89.0,2324.0,4000.0,4000.0,-2353.0,-898.0,2937.0
-20.0,-47.0,1292.0,4000.0,4000.0,-3568.0,-1187.0,2807.0
-13.0,-66.0,321.0,4000.0,4000.0,-4000.0,-723.0,3120.0
-5.0,-79.0,-247.0,4000.0,4000.0,-4000.0,-371.0,3397.0
-29.0,-55.0,492.0,2933.0,4000.0,-4000.0,-45.0,3145.0
-25.0,-45.0,903.0,-488.0,4000.0,-4000.0,-209.0,3291.0
-43.0,-42.0,1284.0,-4000.0,4000.0,-4000.0,-542.0,3260.0
-44.0,-28.0,1517.0,-4000.0,2711.0,-4000.0,-599.0,3487.0
-50.0,-15.0,676.0,-4000.0,-429.0,-4000.0,-774.0,3700.0
-68.0,-17.0,533.0,-4000.0,-4000.0,-4000.0,-876.0,3897.0
-78.0,7.0,-552.0,-4000.0,-4000.0,-4000.0,-923.0,4000.0
-81.0,7.0,-1944.0,-4000.0,-4000.0,-4000.0,-817.0,4000.0
-89.0,25.0,-1211.0,-2972.0,-4000.0,-4000.0,-737.0,3976.0
-110.0,3.0,-912.0,-2261.0,-4000.0,-4000.0,-643.0,3340.0
-106.0,18.0,-1910.0,-411.0,-4000.0,-4000.0,-555.0,1621.0
-119.0,23.0,-1795.0,864.0,-4000.0,-3959.0,-500.0,-153.0
-122.0,19.0,-2483.0,447.0,-4000.0,-3583.0,-378.0,-348.0
-125.0,31.0,-2782.0,1254.0,-608.0,-3275.0,-403.0,-824.0
-212.0,-15.0,-1268.0,1631.0,4000.0,-3063.0,-436.0,-1432.0
-339.0,5.0,-2607.0,1241.0,4000.0,-2884.0,-455.0,-1191.0
-248.0,30.0,-4000.0,598.0,4000.0,-2608.0,-489.0,-1190.0
-98.0,25.0,-4000.0,583.0,4000.0,-2310.0,-582.0,-875.0
-20.0,37.0,2018.0,756.0,4000.0,-1915.0,-941.0,-1115.0
74.0,40.0,3510.0,974.0,4000.0,-1607.0,-882.0,-1123.0
96.0,39.0,4000.0,1045.0,4000.0,-1251.0,-70.0,-649.0
86.0,49.0,3510.0,1053.0,4000.0,-928.0,563.0,-288.0
49.0,48.0,1306.0,1080.0,4000.0,-834.0,628.0,148.0
47.0,33.0,695.0,1090.0,4000.0,-977.0,368.0,157.0
51.0,23.0,-1831.0,1145.0,4000.0,-1599.0,217.0,1117.0
55.0,-7.0,-3832.0,1053.0,4000.0,-2274.0,248.0,2705.0
69.0,14.0,-3242.0,1045.0,4000.0,-2797.0,237.0,4000.0
69.0,8.0,-186.0,850.0,4000.0,-2922.0,276.0,4000.0
53.0,8.0,1171.0,740.0,4000.0,-2667.0,208.0,2313.0
34.0,43.0,1703.0,641.0,4000.0,-2274.0,12.0,1272.0
49.0,41.0,2224.0,642.0,4000.0,-1847.0,-61.0,-348.0
71.0,79.0,1501.0,598.0,4000.0,-1605.0,-216.0,-2995.0
104.0,69.0,-212.0,655.0,4000.0,-1526.0,-424.0,-4000.0
55.0,40.0,-2829.0,642.0,4000.0,-1396.0,-382.0,-4000.0
27.0,21.0,-2656.0,472.0,4000.0,-1192.0,-277.0,-3581.0
11.0,-10.0,-2124.0,533.0,4000.0,-988.0,-294.0,-3949.0
1.0,-18.0,-2954.0,394.0,4000.0,-407.0,-228.0,772.0
20.0,-14.0,-2704.0,170.0,4000.0,595.0,-216.0,1392.0
-2.0,-57.0,-1492.0,-140.0,3428.0,1601.0,-325.0,1012.0
-9.0,-140.0,410.0,-267.0,1865.0,2629.0,-378.0,2118.0
-36.0,-137.0,2859.0,-40.0,823.0,3723.0,-435.0,831.0
-18.0,-73.0,4000.0,195.0,171.0,4000.0,-447.0,938.0
-13.0,-54.0,4000.0,337.0,207.0,4000.0,-513.0,-180.0
-12.0,-37.0,4000.0,362.0,-327.0,4000.0,-500.0,-142.0
28.0,2.0,4000.0,309.0,-155.0,4000.0,-482.0,-541.0
31.0,1.0,3527.0,227.0,771.0,4000.0,-646.0,-918.0
5.0,38.0,1953.0,152.0,831.0,4000.0,-716.0,-996.0
2.0,47.0,1062.0,7.0,1409.0,4000.0,-420.0,-1391.0
13.0,14.0,512.0,-16.0,2630.0,4000.0,-194.0,-1310.0
-25.0,-18.0,-194.0,99.0,4000.0,4000.0,-87.0,-1671.0
-20.0,-21.0,-542.0,170.0,4000.0,4000.0,294.0,-1391.0
-39.0,-36.0,-515.0,170.0,4000.0,4000.0,376.0,-1339.0
-53.0,-80.0,-682.0,152.0,3281.0,4000.0,95.0,-1135.0
9.0,-76.0,-931.0,108.0,1983.0,3474.0,-63.0,-1064.0
172.0,-98.0,-957.0,-15.0,1482.0,2580.0,-136.0,189.0
334.0,-91.0,-955.0,-188.0,790.0,1644.0,-156.0,1502.0
318.0,-77.0,-963.0,-379.0,686.0,673.0,-142.0,781.0
212.0,-50.0,-1036.0,-523.0,607.0,-163.0,-175.0,-400.0
135.0,-8.0,-976.0,-669.0,-15.0,-917.0,-154.0,-1078.0
-27.0,-7.0,-1084.0,-724.0,-124.0,-1518.0,-91.0,-1660.0
-128.0,-56.0,-1153.0,-755.0,-338.0,-1915.0,-101.0,-2309.0
-240.0,-114.0,-1134.0,-696.0,-598.0,-2218.0,-152.0,-2189.0
-368.0,-95.0,-1101.0,-559.0,-1174.0,-2392.0,-147.0,-659.0
-378.0,-53.0,-1084.0,-448.0,-2289.0,-2480.0,-54.0,1586.0
-367.0,9.0,-1016.0,-359.0,-3511.0,-2504.0,29.0,3738.0
-293.0,31.0,-825.0,-336.0,-4000.0,-2451.0,8.0,4000.0
-39.0,-37.0,-741.0,-216.0,-4000.0,-2406.0,-18.0,4000.0
212.0,-92.0,-615.0,-97.0,-4000.0,-2403.0,-4.0,4000.0
228.0,-36.0,-505.0,-21.0,-4000.0,-2386.0,-48.0,4000.0
104.0,30.0,-389.0,25.0,-4000.0,-2315.0,-20.0,4000.0
60.0,128.0,-290.0,45.0,-4000.0,-2235.0,21.0,4000.0
8.0,188.0,-228.0,96.0,-4000.0,-2144.0,19.0,3600.0
-310.0,144.0,-147.0,109.0,-4000.0,-2061.0,-20.0,3209.0
-453.0,117.0,-65.0,122.0,-4000.0,-1976.0,-116.0,2705.0
-479.0,57.0,10.0,126.0,-4000.0,-1850.0,-159.0,1989.0
-580.0,62.0,49.0,132.0,-4000.0,-1688.0,-162.0,1533.0
-566.0,102.0,116.0,127.0,-4000.0,-1461.0,-112.0,896.0
-523.0,139.0,169.0,105.0,-4000.0,-1251.0,-220.0,-40.0
-409.0,128.0,215.0,77.0,-4000.0,-1070.0,-349.0,-954.0
-354.0,31.0,234.0,52.0,-4000.0,-940.0,-220.0,-1790.0
-323.0,14.0,263.0,56.0,-4000.0,-832.0,-113.0,-2578.0
-288.0,33.0,306.0,104.0,-4000.0,-751.0,72.0,-2930.0
-228.0,83.0,393.0,189.0,-4000.0,-685.0,168.0,-3024.0
-162.0,168.0,474.0,217.0,-4000.0,-576.0,95.0,-3113.0
-18.0,196.0,486.0,175.0,-4000.0,-394.0,191.0,-3073.0
253.0,182.0,533.0,194.0,-4000.0,-202.0,7.0,-3073.0
328.0,146.0,598.0,236.0,-4000.0,-17.0,-290.0,-2995.0
379.0,95.0,663.0,270.0,-4000.0,68.0,-109.0,-2230.0
433.0,95.0,546.0,245.0,-4000.0,42.0,100.0,-1208.0
121.0,43.0,246.0,-28.0,-4000.0,-124.0,141.0,-704.0
-365.0,-26.0,154.0,-296.0,-4000.0,-304.0,92.0,-471.0
-233.0,-72.0,217.0,-481.0,-4000.0,-195.0,-101.0,-228.0
268.0,-50.0,-182.0,-751.0,-4000.0,-112.0,49.0,-262.0
382.0,19.0,-753.0,-884.0,-4000.0,-120.0,524.0,-589.0
517.0,-15.0,-890.0,-645.0,-4000.0,-63.0,759.0,-659.0
505.0,-51.0,-419.0,-336.0,-3148.0,-78.0,523.0,-599.0
366.0,-64.0,-26.0,-254.0,-2224.0,58.0,27.0,-391.0
325.0,-108.0,-76.0,-189.0,-1978.0,504.0,-489.0,-454.0
268.0,-114.0,48.0,-149.0,-3408.0,793.0,-613.0,-781.0
172.0,-150.0,244.0,-74.0,-4000.0,485.0,167.0,-980.0
74.0,-179.0,437.0,25.0,-4000.0,-214.0,1064.0,-1143.0
69.0,-172.0,345.0,43.0,-4000.0,-802.0,1084.0,-1170.0
52.0,-158.0,140.0,85.0,-4000.0,-796.0,816.0,-1143.0
98.0,-60.0,-82.0,51.0,-4000.0,-802.0,433.0,-1122.0
39.0,-15.0,-239.0,45.0,-4000.0,-1140.0,-522.0,-1204.0
30.0,-2.0,-147.0,94.0,-4000.0,-1729.0,-1368.0,-1143.0
56.0,31.0,68.0,170.0,-3917.0,-1847.0,-1250.0,-859.0
27.0,59.0,241.0,116.0,143.0,-1070.0,-450.0,-540.0
89.0,54.0,122.0,4.0,4000.0,-516.0,355.0,-227.0
99.0,36.0,-8.0,84.0,4000.0,-345.0,1027.0,-111.0
67.0,10.0,-177.0,170.0,4000.0,-147.0,888.0,-91.0
52.0,40.0,0.0,236.0,4000.0,-74.0,26.0,-156.0
79.0,60.0,158.0,347.0,4000.0,155.0,-83.0,-339.0
33.0,17.0,73.0,394.0,4000.0,391.0,563.0,-482.0
39.0,54.0,101.0,251.0,4000.0,510.0,988.0,-541.0
50.0,56.0,-20.0,167.0,4000.0,1012.0,1190.0,-540.0
25.0,70.0,20.0,124.0,4000.0,1136.0,1098.0,-602.0
26.0,73.0,64.0,66.0,4000.0,1312.0,523.0,-839.0
0.0,83.0,30.0,87.0,4000.0,1580.0,119.0,-1018.0
37.0,117.0,101.0,152.0,4000.0,1473.0,210.0,-1005.0
37.0,95.0,88.0,164.0,4000.0,1279.0,403.0,-1012.0
17.0,91.0,101.0,55.0,4000.0,1287.0,294.0,-1123.0
2.0,77.0,106.0,116.0,4000.0,1266.0,124.0,-1194.0
-5.0,78.0,45.0,87.0,4000.0,1033.0,209.0,-1190.0
-28.0,34.0,56.0,65.0,4000.0,944.0,158.0,-1135.0
-47.0,-10.0,75.0,329.0,4000.0,860.0,-26.0,-973.0
-41.0,-19.0,32.0,459.0,4000.0,795.0,-129.0,-720.0
-67.0,25.0,-9.0,310.0,4000.0,758.0,-185.0,-415.0
-48.0,99.0,-62.0,16.0,4000.0,902.0,-211.0,-228.0
-3.0,156.0,-155.0,-214.0,4000.0,994.0,-102.0,-55.0
-28.0,260.0,-198.0,-388.0,4000.0,1033.0,4.0,100.0
-44.0,355.0,-245.0,-540.0,4000.0,1009.0,166.0,120.0
-43.0,359.0,-320.0,-476.0,4000.0,857.0,168.0,352.0
-73.0,216.0,-208.0,-296.0,4000.0,693.0,-325.0,593.0
-77.0,56.0,-83.0,-109.0,4000.0,532.0,-420.0,658.0
-132.0,-108.0,-128.0,280.0,4000.0,504.0,-235.0,591.0
-122.0,-232.0,-57.0,246.0,4000.0,498.0,-216.0,751.0
-75.0,-337.0,-23.0,-106.0,4000.0,596.0,-161.0,973.0
-74.0,-379.0,-56.0,-316.0,4000.0,673.0,-189.0,1053.0
-20.0,-345.0,-15.0,-540.0,4000.0,815.0,-74.0,1272.0
-18.0,-318.0,-14.0,-481.0,4000.0,1148.0,280.0,1439.0
-7.0,-275.0,11.0,-420.0,4000.0,1254.0,506.0,1781.0
9.0,-204.0,-3.0,-346.0,4000.0,1012.0,103.0,2445.0
5.0,-115.0,26.0,-72.0,4000.0,874.0,-290.0,2367.0
30.0,-82.0,45.0,236.0,4000.0,758.0,-371.0,1697.0
52.0,11.0,15.0,376.0,4000.0,619.0,-211.0,1326.0
55.0,99.0,-60.0,472.0,4000.0,531.0,311.0,1020.0
37.0,110.0,-171.0,335.0,3493.0,542.0,673.0,922.0
42.0,126.0,-247.0,55.0,2422.0,651.0,702.0,817.0
37.0,157.0,-314.0,41.0,2057.0,613.0,543.0,491.0
14.0,140.0,-274.0,-43.0,2047.0,641.0,433.0,261.0
-28.0,-6.0,-230.0,-8.0,2224.0,628.0,677.0,187.0
-99.0,-107.0,-157.0,-46.0,1639.0,563.0,1158.0,5.0
-125.0,-110.0,7.0,-121.0,-1250.0,563.0,627.0,-51.0
-87.0,-14.0,122.0,-22.0,-4000.0,514.0,-353.0,14.0
-24.0,102.0,260.0,93.0,-4000.0,522.0,-685.0,49.0
-29.0,105.0,361.0,163.0,-4000.0,480.0,-565.0,176.0
-58.0,52.0,364.0,77.0,-4000.0,441.0,-2.0,332.0
-109.0,-8.0,203.0,75.0,-4000.0,392.0,-620.0,491.0
-98.0,52.0,18.0,132.0,-4000.0,336.0,-1503.0,304.0
-53.0,1.0,-73.0,85.0,-4000.0,329.0,-902.0,-96.0
-76.0,-151.0,-188.0,-3.0,-4000.0,329.0,738.0,-411.0
-39.0,-166.0,-66.0,-119.0,-4000.0,321.0,1223.0,-577.0
-27.0,-110.0,30.0,-362.0,-4000.0,336.0,159.0,-539.0
-49.0,-52.0,146.0,-498.0,-4000.0,400.0,336.0,-557.0
-16.0,-50.0,253.0,-523.0,-4000.0,335.0,1019.0,-484.0
-17.0,-105.0,212.0,-538.0,-4000.0,246.0,853.0,-86.0
-55.0,-230.0,-96.0,-584.0,-4000.0,202.0,131.0,532.0
-24.0,-304.0,-369.0,-619.0,-4000.0,93.0,-100.0,548.0
17.0,-310.0,-265.0,-498.0,-4000.0,188.0,308.0,286.0
-38.0,-291.0,-178.0,-318.0,-4000.0,220.0,54.0,138.0
-36.0,-326.0,-111.0,-194.0,-4000.0,21.0,-546.0,3.0
-10.0,-222.0,-190.0,-116.0,-4000.0,259.0,-811.0,-518.0
13.0,-89.0,-440.0,-90.0,-4000.0,490.0,-641.0,-1330.0
8.0,-40.0,-503.0,-24.0,-4000.0,480.0,15.0,-1404.0
-56.0,79.0,-138.0,120.0,-4000.0,615.0,362.0,-1511.0
-203.0,103.0,-257.0,125.0,-4000.0,687.0,24.0,-1540.0
-21.0,111.0,-385.0,141.0,-4000.0,506.0,-407.0,-1579.0
635.0,116.0,-208.0,142.0,-4000.0,329.0,-811.0,-1756.0
587.0,117.0,-274.0,152.0,-4000.0,283.0,-802.0,-1755.0
-28.0,124.0,-218.0,196.0,-4000.0,554.0,-573.0,-1984.0
-396.0,131.0,-168.0,195.0,-4000.0,896.0,-482.0,-2165.0
-296.0,105.0,-125.0,187.0,-4000.0,882.0,-587.0,-2295.0
-47.0,111.0,-144.0,150.0,-4000.0,1053.0,-745.0,-2231.0
-31.0,168.0,-129.0,149.0,-4000.0,1026.0,-546.0,-2166.0
-3.0,164.0,-94.0,124.0,-4000.0,941.0,-373.0,-2296.0
-138.0,152.0,-44.0,122.0,-4000.0,944.0,-363.0,-2412.0
-221.0,162.0,24.0,112.0,-3867.0,953.0,-516.0,-2611.0
-301.0,151.0,89.0,96.0,-1654.0,1148.0,-662.0,-2747.0
-222.0,126.0,125.0,98.0,-269.0,1409.0,-664.0,-2848.0
-158.0,125.0,116.0,75.0,-141.0,1644.0,-459.0,-2617.0
-121.0,113.0,125.0,38.0,-557.0,1852.0,-216.0,-1921.0
31.0,135.0,96.0,-2.0,-177.0,2316.0,-266.0,-1050.0
45.0,135.0,23.0,1.0,1574.0,2189.0,-317.0,292.0
56.0,159.0,-64.0,69.0,3682.0,1710.0,-448.0,1792.0
4.0,140.0,160.0,162.0,4000.0,1254.0,-711.0,2876.0
92.0,105.0,278.0,156.0,4000.0,528.0,-727.0,3766.0
181.0,121.0,201.0,133.0,4000.0,-211.0,-550.0,4000.0
174.0,87.0,163.0,105.0,4000.0,-1005.0,-658.0,4000.0
230.0,90.0,101.0,100.0,4000.0,-1821.0,-998.0,3617.0
321.0,60.0,170.0,134.0,4000.0,-2921.0,-1201.0,1639.0
530.0,30.0,15.0,78.0,4000.0,-3913.0,-1071.0,-594.0
640.0,12.0,-248.0,21.0,4000.0,-4000.0,-745.0,-1808.0
408.0,-16.0,-212.0,9.0,4000.0,-4000.0,-722.0,-1055.0
418.0,-14.0,198.0,-15.0,4000.0,-4000.0,-876.0,677.0
334.0,-48.0,722.0,-31.0,4000.0,-4000.0,-837.0,2313.0
-305.0,-29.0,1163.0,-71.0,4000.0,-4000.0,-697.0,3535.0
-383.0,-20.0,1443.0,-151.0,4000.0,-4000.0,-522.0,4000.0
-248.0,-48.0,1359.0,-155.0,4000.0,-4000.0,-317.0,4000.0
-315.0,-1.0,1110.0,-155.0,4000.0,-4000.0,-355.0,4000.0
-218.0,35.0,852.0,-177.0,4000.0,-4000.0,-281.0,4000.0
-327.0,60.0,573.0,-181.0,4000.0,-4000.0,-84.0,4000.0
-366.0,38.0,431.0,-170.0,4000.0,-4000.0,113.0,3804.0
-323.0,37.0,309.0,-149.0,4000.0,-4000.0,196.0,3535.0
-296.0,79.0,-1.0,-172.0,1395.0,-4000.0,73.0,2835.0
-242.0,29.0,-503.0,-171.0,-2063.0,-4000.0,288.0,2054.0
-123.0,-76.0,-688.0,-143.0,-4000.0,-4000.0,628.0,1307.0
-51.0,-159.0,-363.0,-171.0,-4000.0,-4000.0,533.0,831.0
-99.0,-196.0,-156.0,-253.0,-4000.0,-4000.0,163.0,1020.0
-31.0,-200.0,56.0,-271.0,-4000.0,-4000.0,-169.0,361.0
-20.0,-133.0,191.0,-263.0,-4000.0,-4000.0,-195.0,-273.0
-145.0,-111.0,199.0,-255.0,-4000.0,-4000.0,233.0,-2022.0
-162.0,-150.0,85.0,-238.0,-4000.0,-3624.0,481.0,-4000.0
-38.0,-95.0,-107.0,-230.0,-4000.0,-3144.0,-192.0,-4000.0
-42.0,-74.0,-187.0,-191.0,-4000.0,-2673.0,-1104.0,-4000.0
-39.0,-104.0,-140.0,-156.0,-4000.0,-2228.0,-555.0,-4000.0
-24.0,-122.0,55.0,-125.0,-4000.0,-1747.0,99.0,-4000.0
-36.0,-130.0,99.0,-63.0,-4000.0,-1247.0,-620.0,-4000.0
-20.0,-125.0,196.0,-22.0,-4000.0,-854.0,-1038.0,-3516.0
-51.0,-108.0,149.0,-29.0,-4000.0,-546.0,-576.0,-1957.0
-170.0,-88.0,125.0,-19.0,-47.0,-119.0,-811.0,-1122.0
-220.0,-94.0,125.0,6.0,4000.0,343.0,-1608.0,988.0
-170.0,-73.0,80.0,18.0,4000.0,597.0,-1377.0,2380.0
-196.0,-2.0,104.0,11.0,4000.0,815.0,-956.0,4000.0
-9.0,1.0,-68.0,41.0,4000.0,938.0,-1462.0,4000.0
49.0,25.0,-183.0,80.0,4000.0,1118.0,-1051.0,4000.0
211.0,55.0,-244.0,92.0,4000.0,1279.0,28.0,4000.0
481.0,64.0,-263.0,109.0,4000.0,1352.0,-56.0,4000.0
530.0,83.0,-385.0,113.0,4000.0,1474.0,89.0,4000.0
692.0,49.0,-401.0,125.0,4000.0,1639.0,498.0,4000.0
618.0,33.0,-442.0,105.0,4000.0,1839.0,645.0,2563.0
574.0,52.0,-490.0,118.0,4000.0,2046.0,608.0,394.0
408.0,57.0,-511.0,116.0,4000.0,2190.0,478.0,-1430.0
168.0,41.0,-696.0,103.0,4000.0,2359.0,1092.0,-2584.0
-55.0,14.0,-841.0,106.0,4000.0,2512.0,1345.0,-3988.0
-195.0,9.0,-906.0,100.0,4000.0,2580.0,1345.0,-4000.0
-167.0,13.0,-996.0,110.0,4000.0,2682.0,2125.0,-3578.0
-151.0,37.0,-1492.0,72.0,4000.0,2809.0,2125.0,-529.0
-32.0,75.0,-1563.0,61.0,4000.0,2888.0,2036.0,-548.0
-157.0,87.0,-507.0,72.0,4000.0,2971.0,2517.0,-183.0
-185.0,121.0,741.0,75.0,4000.0,3018.0,2049.0,583.0
-165.0,121.0,1835.0,96.0,4000.0,3072.0,1982.0,518.0
-236.0,90.0,2783.0,87.0,4000.0,3101.0,2321.0,-215.0
-179.0,60.0,2989.0,115.0,4000.0,3125.0,2036.0,-2941.0
-148.0,52.0,2789.0,141.0,4000.0,3125.0,2125.0,-4000.0
-83.0,46.0,2395.0,161.0,4000.0,3070.0,2384.0,-4000.0
-55.0,31.0,1703.0,142.0,4000.0,2953.0,2364.0,-4000.0
-40.0,12.0,701.0,105.0,2019.0,2943.0,2514.0,-2862.0
-77.0,-6.0,-36.0,99.0,-483.0,3202.0,2361.0,174.0
-60.0,11.0,-454.0,122.0,-2866.0,4000.0,2161.0,1476.0
-42.0,2.0,-627.0,175.0,-4000.0,4000.0,2225.0,2184.0
-56.0,7.0,-80.0,169.0,-4000.0,4000.0,1967.0,1977.0
-13.0,-5.0,504.0,160.0,-4000.0,4000.0,1801.0,1895.0
-6.0,2.0,866.0,131.0,-4000.0,4000.0,1800.0,2705.0
-3.0,20.0,866.0,130.0,-4000.0,4000.0,1640.0,2575.0
-17.0,7.0,606.0,145.0,-4000.0,4000.0,1489.0,2948.0
-11.0,1.0,401.0,188.0,-4000.0,4000.0,1418.0,2856.0
4.0,30.0,29.0,207.0,-4000.0,4000.0,1214.0,1977.0
6.0,45.0,-151.0,149.0,-4000.0,4000.0,1119.0,1977.0
55.0,73.0,-228.0,160.0,-4000.0,4000.0,962.0,927.0
85.0,86.0,-576.0,144.0,-4000.0,4000.0,759.0,145.0
56.0,87.0,-1063.0,139.0,-4000.0,4000.0,682.0,-385.0
-28.0,95.0,-1143.0,93.0,-4000.0,4000.0,461.0,-953.0
-208.0,44.0,-970.0,34.0,-4000.0,4000.0,297.0,-1013.0
-201.0,34.0,-976.0,12.0,-3898.0,4000.0,136.0,-1404.0
-128.0,8.0,-1015.0,13.0,-3262.0,4000.0,15.0,-1469.0
-416.0,36.0,-1084.0,-11.0,-2715.0,3677.0,-50.0,-1756.0
-609.0,59.0,-1106.0,-71.0,-2537.0,2111.0,-159.0,-2063.0
-140.0,24.0,-1237.0,-62.0,-1849.0,809.0,-237.0,-2393.0
340.0,16.0,-1427.0,-63.0,-1007.0,-123.0,-294.0,-2584.0
525.0,24.0,-1536.0,-18.0,-372.0,-661.0,-359.0,-2605.0
624.0,25.0,-1549.0,264.0,363.0,-1242.0,-468.0,-2049.0
399.0,-44.0,-1537.0,457.0,896.0,-1961.0,-550.0,-704.0
182.0,-165.0,-1602.0,46.0,544.0,-2657.0,-613.0,44.0
-16.0,-231.0,-1746.0,-328.0,-246.0,-3079.0,-708.0,-1.0
-125.0,-241.0,-1882.0,-519.0,-460.0,-3128.0,-797.0,-471.0
-147.0,-195.0,-1992.0,-696.0,-523.0,-2867.0,-867.0,-711.0
-160.0,-150.0,-2047.0,-565.0,-499.0,-2803.0,-929.0,-1959.0
-141.0,-140.0,-1862.0,-437.0,-640.0,-3514.0,-972.0,-4000.0
-162.0,-72.0,-1427.0,-328.0,-1105.0,-4000.0,-1071.0,-4000.0
-189.0,-38.0,-943.0,-279.0,-2029.0,-4000.0,-1119.0,-4000.0
-163.0,4.0,-454.0,-168.0,-2912.0,-4000.0,-1107.0,-4000.0
-43.0,115.0,-208.0,-27.0,-2318.0,-4000.0,-1071.0,-3773.0
-62.0,197.0,14.0,30.0,-1497.0,-4000.0,-1054.0,-1959.0
-26.0,182.0,217.0,18.0,-1398.0,-4000.0,-1063.0,-1439.0
-5.0,143.0,439.0,-15.0,-364.0,-4000.0,-1071.0,87.0
44.0,81.0,671.0,57.0,-19.0,-4000.0,-1058.0,238.0
89.0,41.0,719.0,32.0,-863.0,-4000.0,-1031.0,-136.0
32.0,17.0,567.0,34.0,-1207.0,-4000.0,-1051.0,168.0
21.0,-89.0,480.0,37.0,-1573.0,-4000.0,-973.0,-262.0
-51.0,-115.0,376.0,17.0,-1854.0,-4000.0,-912.0,-101.0
-74.0,-114.0,337.0,8.0,-2212.0,-4000.0,-876.0,97.0
-126.0,-166.0,496.0,-21.0,-2181.0,-4000.0,-876.0,379.0
-93.0,-172.0,450.0,-5.0,-2105.0,-4000.0,-862.0,550.0
71.0,-79.0,410.0,-22.0,-2421.0,-4000.0,-729.0,654.0
146.0,-6.0,385.0,-6.0,-2537.0,-3657.0,-630.0,811.0
144.0,-19.0,384.0,-12.0,-2181.0,-3010.0,-648.0,1020.0
82.0,28.0,385.0,6.0,-2187.0,-2157.0,-796.0,1156.0
89.0,80.0,349.0,1.0,-2472.0,-1308.0,-973.0,1216.0
157.0,87.0,385.0,-5.0,-2676.0,-897.0,-902.0,1454.0
139.0,48.0,463.0,12.0,-2406.0,-672.0,-876.0,1573.0
143.0,-24.0,533.0,-33.0,-2116.0,-615.0,-1071.0,1704.0
163.0,-33.0,494.0,-20.0,-2735.0,-750.0,-912.0,1846.0
166.0,27.0,354.0,-10.0,-3066.0,-859.0,-613.0,2029.0
130.0,42.0,234.0,-16.0,-3018.0,-1005.0,-473.0,2107.0
64.0,52.0,308.0,-7.0,-2935.0,-1205.0,-363.0,2172.0
82.0,82.0,438.0,4.0,-2935.0,-1330.0,-252.0,2183.0
64.0,69.0,450.0,35.0,-2611.0,-1310.0,-33.0,2172.0
11.0,80.0,438.0,12.0,-2057.0,-1005.0,216.0,2119.0
-21.0,57.0,419.0,-15.0,-1609.0,-436.0,433.0,2154.0
-7.0,29.0,349.0,-49.0,-1313.0,119.0,529.0,2159.0
-16.0,12.0,321.0,-33.0,-1433.0,678.0,871.0,2237.0
-79.0,17.0,325.0,-26.0,-1109.0,988.0,1149.0,2435.0
-92.0,30.0,263.0,-50.0,-785.0,941.0,1406.0,2184.0
-75.0,30.0,211.0,-29.0,-1044.0,766.0,1866.0,1716.0
-144.0,46.0,152.0,-37.0,-2187.0,376.0,1993.0,1456.0
-183.0,77.0,101.0,-32.0,-3315.0,-19.0,1923.0,1142.0
-238.0,80.0,80.0,-3.0,-3327.0,23.0,1735.0,426.0
-470.0,56.0,85.0,22.0,-3132.0,351.0,1645.0,-262.0
-433.0,47.0,89.0,23.0,-2729.0,290.0,1605.0,-218.0
-81.0,13.0,98.0,-17.0,-2806.0,206.0,1605.0,426.0
154.0,31.0,108.0,-25.0,-3378.0,327.0,1532.0,273.0
0.0,38.0,124.0,-6.0,-3066.0,693.0,1214.0,21.0
-685.0,18.0,121.0,-7.0,-2537.0,1098.0,1070.0,255.0
-886.0,-12.0,52.0,-8.0,-1963.0,1258.0,945.0,742.0
-208.0,49.0,3.0,-11.0,-1446.0,1254.0,637.0,1895.0
473.0,65.0,-45.0,-22.0,-966.0,921.0,220.0,1792.0
986.0,4.0,6.0,8.0,-111.0,669.0,7.0,1346.0
1018.0,-24.0,81.0,-32.0,790.0,208.0,-52.0,1306.0
870.0,-19.0,114.0,-32.0,1539.0,110.0,-290.0,686.0
562.0,31.0,152.0,-34.0,2254.0,307.0,-648.0,489.0
147.0,-19.0,132.0,-48.0,2972.0,498.0,-837.0,188.0
-27.0,54.0,172.0,-64.0,3462.0,876.0,-1011.0,-48.0
-73.0,127.0,263.0,-61.0,3534.0,673.0,-1141.0,-360.0
67.0,58.0,431.0,-35.0,3399.0,1114.0,-1116.0,-781.0
-51.0,-51.0,498.0,-72.0,3558.0,1638.0,-1199.0,-1083.0
-238.0,-128.0,467.0,13.0,3916.0,1148.0,-1383.0,-1391.0
-223.0,-50.0,439.0,61.0,3904.0,510.0,-1618.0,-1593.0
-73.0,46.0,318.0,14.0,3902.0,-48.0,-1690.0,-1803.0
-172.0,82.0,223.0,6.0,4000.0,-204.0,-1551.0,-1891.0
-300.0,108.0,61.0,-9.0,4000.0,17.0,-1500.0,-1970.0
-188.0,112.0,-123.0,-9.0,3916.0,126.0,-1583.0,-1986.0
-76.0,99.0,88.0,-2.0,3916.0,-67.0,-1673.0,-1697.0
-18.0,17.0,427.0,22.0,3812.0,-147.0,-1684.0,-744.0
17.0,-137.0,449.0,-13.0,3725.0,-145.0,-1462.0,170.0
-50.0,-267.0,343.0,-22.0,3403.0,-134.0,-1258.0,50.0
-301.0,-295.0,120.0,19.0,3332.0,-161.0,-1193.0,-137.0
-292.0,-165.0,-53.0,19.0,3346.0,-267.0,-1141.0,536.0
-150.0,-41.0,-123.0,-8.0,3204.0,-337.0,-971.0,17.0
-246.0,-37.0,-141.0,-61.0,3074.0,-394.0,-882.0,-2605.0
-1076.0,-88.0,-142.0,-69.0,2889.0,-393.0,-811.0,-4000.0
-3571.0,-68.0,-143.0,-54.0,2813.0,-266.0,-666.0,-4000.0
-4000.0,-47.0,-131.0,-51.0,2862.0,-132.0,-769.0,-4000.0
-2061.0,-95.0,-243.0,-21.0,2711.0,-40.0,-940.0,-4000.0
1194.0,-106.0,-338.0,20.0,2386.0,-32.0,-1054.0,-4000.0
3378.0,-72.0,-300.0,2.0,2165.0,-159.0,-1042.0,-4000.0
4000.0,-13.0,-151.0,-9.0,1995.0,-133.0,-713.0,-2411.0
3460.0,26.0,-3.0,-12.0,2085.0,-224.0,-401.0,-1808.0
2597.0,99.0,111.0,-67.0,2363.0,-640.0,-530.0,-1756.0
1194.0,115.0,119.0,-93.0,2513.0,-1251.0,-902.0,-1005.0
212.0,90.0,70.0,-107.0,2189.0,-1766.0,-1006.0,283.0
-714.0,95.0,109.0,-134.0,1842.0,-1570.0,-708.0,-75.0
-771.0,58.0,158.0,-197.0,1227.0,-932.0,-281.0,784.0
-20.0,18.0,114.0,-200.0,562.0,170.0,77.0,425.0
9.0,5.0,74.0,-165.0,-5.0,1098.0,329.0,499.0
595.0,46.0,43.0,-107.0,-877.0,693.0,622.0,473.0
250.0,22.0,-141.0,-55.0,-1463.0,401.0,897.0,426.0
109.0,-29.0,-297.0,-44.0,-2145.0,398.0,791.0,564.0
-96.0,30.0,-413.0,20.0,-2537.0,98.0,563.0,137.0
-386.0,30.0,-425.0,96.0,-2989.0,-190.0,497.0,301.0
-354.0,-16.0,-308.0,129.0,-3474.0,-940.0,413.0,167.0
-310.0,-51.0,-3.0,94.0,-3539.0,-1617.0,319.0,530.0
161.0,-97.0,308.0,31.0,-3563.0,-1526.0,185.0,454.0
198.0,-93.0,441.0,12.0,-3517.0,-832.0,144.0,556.0
-5.0,-26.0,520.0,-16.0,-3753.0,-57.0,181.0,521.0
-974.0,92.0,415.0,-54.0,-3982.0,268.0,260.0,462.0
-2031.0,233.0,297.0,-47.0,-4000.0,563.0,303.0,503.0
-1886.0,260.0,150.0,34.0,-4000.0,642.0,297.0,471.0
-1298.0,217.0,13.0,120.0,-3539.0,343.0,176.0,541.0
-1090.0,176.0,3.0,157.0,-3197.0,343.0,189.0,536.0
-951.0,-47.0,36.0,467.0,-3083.0,248.0,283.0,634.0
-213.0,-219.0,69.0,879.0,-2843.0,615.0,595.0,603.0
530.0,-133.0,50.0,785.0,-2277.0,1148.0,805.0,719.0
504.0,-83.0,44.0,442.0,-1766.0,685.0,563.0,570.0
673.0,-138.0,64.0,-30.0,-1333.0,394.0,384.0,556.0
530.0,-96.0,152.0,-458.0,-769.0,506.0,-76.0,491.0
315.0,-20.0,278.0,-545.0,-122.0,337.0,-287.0,396.0
240.0,93.0,223.0,-617.0,432.0,273.0,-442.0,399.0
130.0,152.0,5.0,-940.0,1417.0,210.0,-839.0,369.0
268.0,209.0,-46.0,-1109.0,2125.0,93.0,-802.0,361.0
314.0,179.0,2.0,-696.0,2516.0,-148.0,-607.0,230.0
342.0,9.0,19.0,-342.0,2569.0,-419.0,-404.0,292.0
202.0,-29.0,-59.0,-232.0,2251.0,-535.0,-178.0,340.0
62.0,-59.0,-162.0,-20.0,2251.0,-453.0,-35.0,507.0
-80.0,-117.0,-225.0,6.0,2513.0,16.0,-206.0,613.0
-110.0,-169.0,-381.0,-242.0,2907.0,254.0,-86.0,654.0
-116.0,-176.0,-383.0,-379.0,2776.0,183.0,-51.0,775.0
80.0,-157.0,-385.0,-69.0,2504.0,-83.0,-449.0,882.0
235.0,-112.0,-328.0,361.0,2231.0,-641.0,-282.0,1066.0
129.0,-41.0,-230.0,458.0,1930.0,-1005.0,59.0,1201.0
-218.0,10.0,-252.0,388.0,1704.0,-1135.0,805.0,1272.0
-506.0,34.0,-212.0,301.0,1279.0,-786.0,1522.0,1272.0
-277.0,-3.0,-153.0,155.0,1148.0,368.0,1723.0,1281.0
-282.0,-42.0,5.0,164.0,961.0,1644.0,1593.0,1346.0
-1560.0,-36.0,137.0,91.0,299.0,1352.0,1255.0,1437.0
-3009.0,-30.0,118.0,46.0,-61.0,384.0,1324.0,1585.0
-1006.0,-15.0,70.0,75.0,-248.0,331.0,1119.0,1704.0
1495.0,15.0,-14.0,102.0,93.0,303.0,812.0,1780.0
1690.0,57.0,-73.0,139.0,1059.0,477.0,608.0,1859.0
1875.0,103.0,-149.0,4.0,1287.0,415.0,687.0,1848.0
2158.0,78.0,-347.0,-132.0,1533.0,480.0,889.0,1781.0
2127.0,8.0,-433.0,-80.0,2225.0,335.0,1255.0,1793.0
1507.0,-78.0,-313.0,-49.0,2513.0,56.0,1475.0,1769.0
709.0,-104.0,-186.0,-101.0,1865.0,402.0,1399.0,1781.0
-367.0,22.0,-202.0,-39.0,619.0,394.0,1825.0,1818.0
-831.0,144.0,-202.0,-125.0,-681.0,449.0,1630.0,1727.0
-196.0,176.0,-174.0,-256.0,-2187.0,-126.0,1353.0,1621.0
96.0,157.0,-253.0,-174.0,-3767.0,-320.0,1353.0,1504.0
212.0,30.0,-234.0,-47.0,-4000.0,-226.0,897.0,1281.0
169.0,-69.0,-236.0,75.0,-4000.0,-320.0,652.0,947.0
-132.0,-105.0,-363.0,112.0,-4000.0,-123.0,522.0,634.0
-163.0,-204.0,-178.0,223.0,-4000.0,-162.0,506.0,332.0
62.0,-196.0,381.0,366.0,-4000.0,-20.0,667.0,28.0
798.0,-121.0,676.0,161.0,-4000.0,-68.0,1149.0,-108.0
762.0,-108.0,781.0,-169.0,-4000.0,25.0,1467.0,-187.0
340.0,-137.0,655.0,-112.0,-4000.0,165.0,2061.0,-312.0
689.0,-157.0,415.0,295.0,-4000.0,37.0,3429.0,-348.0
935.0,-106.0,238.0,191.0,-4000.0,-306.0,2956.0,-344.0
1181.0,-46.0,17.0,77.0,-3682.0,-458.0,930.0,-357.0
436.0,0.0,-122.0,-32.0,-3172.0,-474.0,533.0,-334.0
-966.0,68.0,-183.0,-291.0,-2715.0,-565.0,432.0,-354.0
-1531.0,115.0,-133.0,-109.0,-2472.0,-745.0,-835.0,-291.0
-1540.0,106.0,-376.0,-21.0,-2252.0,-991.0,-1252.0,-128.0
-1495.0,76.0,-1153.0,142.0,-1814.0,-722.0,-946.0,-105.0
-1430.0,77.0,-1714.0,373.0,-1488.0,-510.0,-1184.0,-145.0
-1682.0,94.0,-1415.0,603.0,-1259.0,-283.0,-363.0,-41.0
-1947.0,95.0,-810.0,561.0,-1012.0,-255.0,368.0,-32.0
-1227.0,56.0,199.0,97.0,-1109.0,-663.0,-1122.0,-152.0
-75.0,55.0,748.0,-169.0,-1036.0,-696.0,-1569.0,-13.0
709.0,113.0,828.0,-239.0,-862.0,-459.0,-941.0,156.0
954.0,84.0,1104.0,-214.0,-803.0,24.0,-1051.0,187.0
580.0,-29.0,1062.0,-198.0,-537.0,372.0,-1702.0,255.0
181.0,-139.0,923.0,-185.0,-350.0,-87.0,-1979.0,165.0
-260.0,-154.0,577.0,-159.0,-395.0,-725.0,-98.0,38.0
-492.0,-69.0,-215.0,-96.0,-647.0,-434.0,2190.0,-66.0
-938.0,128.0,-890.0,-169.0,-769.0,17.0,2426.0,-137.0
-1682.0,288.0,-828.0,-255.0,-941.0,-24.0,1475.0,-193.0
-1292.0,261.0,8.0,-290.0,-1318.0,217.0,877.0,-301.0
157.0,155.0,1119.0,-266.0,-1573.0,491.0,311.0,-240.0
973.0,70.0,1452.0,-97.0,-1398.0,749.0,746.0,-134.0
465.0,77.0,1452.0,7.0,-1202.0,1018.0,368.0,-109.0
477.0,115.0,1104.0,25.0,-1375.0,1227.0,46.0,-10.0
82.0,156.0,496.0,52.0,-1390.0,1710.0,930.0,12.0
-2126.0,167.0,20.0,66.0,-921.0,1991.0,-592.0,116.0
-3930.0,112.0,-315.0,28.0,-421.0,2084.0,-2121.0,230.0
-2593.0,43.0,-365.0,18.0,-41.0,2255.0,-2056.0,119.0
635.0,-12.0,-495.0,87.0,607.0,2359.0,-941.0,60.0
2549.0,78.0,-445.0,303.0,607.0,2425.0,-32.0,-168.0
3757.0,125.0,-463.0,424.0,448.0,2485.0,-212.0,-334.0
2198.0,70.0,-547.0,248.0,758.0,2550.0,749.0,-455.0
234.0,74.0,-495.0,84.0,1097.0,2747.0,3853.0,-589.0
1869.0,-79.0,-500.0,-127.0,1377.0,2861.0,4000.0,-627.0
2728.0,-232.0,-512.0,-210.0,1287.0,2501.0,4000.0,-665.0
2715.0,-228.0,-464.0,-137.0,1482.0,1786.0,2647.0,-622.0
2597.0,-213.0,-320.0,-202.0,1266.0,1314.0,-548.0,-614.0
633.0,-239.0,-236.0,-130.0,896.0,896.0,-3919.0,-557.0
-1921.0,-200.0,-181.0,-5.0,1193.0,433.0,-4000.0,-655.0
-1772.0,-68.0,-107.0,-75.0,1482.0,-150.0,-4000.0,-953.0
1307.0,44.0,-57.0,-155.0,1787.0,-912.0,-4000.0,-1439.0
1987.0,103.0,-32.0,-73.0,2317.0,-607.0,-4000.0,-1894.0
2350.0,135.0,-102.0,-155.0,2681.0,-102.0,-4000.0,-2004.0
3460.0,95.0,-277.0,-255.0,2943.0,-555.0,-4000.0,-1803.0
3314.0,-66.0,-247.0,-250.0,3037.0,-416.0,-4000.0,-1756.0
3094.0,-223.0,-206.0,-318.0,2944.0,-727.0,-4000.0,-1839.0
1498.0,-159.0,-673.0,-291.0,3410.0,-1505.0,-3000.0,-1803.0
-1091.0,-118.0,-743.0,-208.0,3463.0,-1814.0,-582.0,-1534.0
-2985.0,-174.0,267.0,-110.0,3085.0,-1682.0,2113.0,-1083.0
-4000.0,-110.0,541.0,-118.0,2745.0,-1330.0,3209.0,-659.0
-4000.0,-93.0,30.0,-77.0,2060.0,-1396.0,2843.0,-442.0
-4000.0,-17.0,490.0,37.0,1521.0,-1103.0,2619.0,-252.0
-4000.0,132.0,1053.0,64.0,807.0,-846.0,921.0,52.0
-3996.0,217.0,1416.0,109.0,64.0,-741.0,-117.0,-76.0
-1782.0,341.0,1301.0,99.0,-621.0,-745.0,-919.0,-222.0
-163.0,386.0,858.0,38.0,-1306.0,-867.0,-477.0,-246.0
-185.0,311.0,463.0,-40.0,-1635.0,-1041.0,3128.0,-219.0
920.0,205.0,-193.0,-109.0,-1756.0,-875.0,4000.0,-105.0
666.0,179.0,-1166.0,-104.0,-2029.0,-737.0,4000.0,-34.0
-190.0,208.0,-2175.0,-37.0,-1945.0,-832.0,4000.0,144.0
-295.0,290.0,-1335.0,52.0,-1703.0,-685.0,791.0,304.0
-924.0,341.0,-29.0,50.0,-1750.0,-716.0,-3688.0,491.0
-541.0,318.0,373.0,26.0,-1442.0,-745.0,-4000.0,434.0
-669.0,208.0,459.0,57.0,-1383.0,-923.0,-3520.0,148.0
-599.0,-25.0,-139.0,55.0,-1319.0,-1070.0,-2158.0,-146.0
-712.0,-136.0,-185.0,40.0,-1267.0,-1070.0,-6.0,-352.0
-746.0,-202.0,98.0,46.0,-1552.0,-1093.0,3990.0,-488.0
-97.0,-375.0,207.0,77.0,-1200.0,-1062.0,4000.0,-753.0
652.0,-479.0,345.0,120.0,-751.0,-1005.0,1670.0,-1213.0
498.0,-440.0,217.0,146.0,-812.0,-940.0,-731.0,-1626.0
-539.0,-314.0,321.0,154.0,-571.0,-906.0,-1605.0,-1607.0
-730.0,-239.0,384.0,126.0,-270.0,-1070.0,-2180.0,-1191.0
-824.0,-181.0,299.0,81.0,-346.0,-1487.0,-2180.0,-401.0
-64.0,-36.0,-303.0,62.0,-225.0,-1672.0,-2172.0,426.0
499.0,147.0,-768.0,11.0,277.0,-1792.0,-1291.0,1387.0
603.0,208.0,-123.0,-50.0,880.0,-1976.0,92.0,2689.0
964.0,133.0,384.0,-61.0,1344.0,-2144.0,-98.0,3853.0
1441.0,52.0,335.0,-44.0,1590.0,-2250.0,655.0,4000.0
1572.0,-15.0,-101.0,-44.0,1734.0,-2300.0,1581.0,4000.0
1429.0,-76.0,-320.0,-1.0,2320.0,-2400.0,1379.0,4000.0
1376.0,-50.0,-66.0,45.0,2513.0,-2504.0,1575.0,4000.0
1216.0,-9.0,-641.0,46.0,2513.0,-2673.0,1996.0,3422.0
1297.0,14.0,-971.0,64.0,2439.0,-2803.0,3007.0,2437.0
1214.0,43.0,-259.0,81.0,2085.0,-2797.0,3335.0,1482.0
1150.0,36.0,655.0,62.0,2035.0,-2685.0,3202.0,471.0
851.0,70.0,1028.0,48.0,2231.0,-2592.0,3669.0,-524.0
716.0,103.0,663.0,7.0,2748.0,-2608.0,4000.0,-1206.0
804.0,160.0,709.0,-78.0,2760.0,-2713.0,3168.0,-1520.0
1065.0,163.0,866.0,-104.0,2254.0,-2738.0,1921.0,-1534.0
2597.0,124.0,762.0,-75.0,1901.0,-2105.0,254.0,-1123.0
4000.0,162.0,650.0,-51.0,2243.0,-645.0,-4000.0,-919.0
4000.0,241.0,35.0,-14.0,2578.0,888.0,-4000.0,-710.0
2793.0,252.0,-716.0,47.0,2439.0,2255.0,-4000.0,-723.0
1108.0,26.0,-672.0,91.0,1983.0,3296.0,-2865.0,-1013.0
1934.0,-35.0,-306.0,59.0,1069.0,4000.0,-956.0,-1455.0
2793.0,11.0,-210.0,-21.0,4.0,4000.0,-1108.0,-1984.0
1059.0,-157.0,-17.0,-99.0,-1200.0,4000.0,1444.0,-2147.0
-1947.0,-310.0,-41.0,-91.0,-2419.0,4000.0,2166.0,-2322.0
-3034.0,-469.0,-63.0,1.0,-3507.0,4000.0,1475.0,-2448.0
-3799.0,-562.0,-8.0,-3.0,-4000.0,4000.0,1333.0,-2309.0
-2173.0,-505.0,-440.0,-28.0,-4000.0,4000.0,416.0,-1970.0
340.0,-375.0,-1041.0,0.0,-4000.0,4000.0,-620.0,-1856.0
-889.0,-253.0,-578.0,-62.0,-4000.0,4000.0,-741.0,-1681.0
-3787.0,-176.0,439.0,-37.0,-3844.0,4000.0,-2.0,-1253.0
-4000.0,-113.0,931.0,-7.0,-2741.0,4000.0,181.0,-489.0
-4000.0,122.0,1119.0,-56.0,-1316.0,4000.0,37.0,361.0
-4000.0,477.0,630.0,-55.0,-162.0,4000.0,-52.0,784.0
-4000.0,601.0,301.0,-76.0,619.0,4000.0,-188.0,795.0
-4000.0,527.0,154.0,-55.0,1539.0,3556.0,-15.0,377.0
-3360.0,386.0,-170.0,-40.0,2711.0,3101.0,785.0,35.0
-3347.0,122.0,-523.0,-50.0,4000.0,2877.0,1410.0,-189.0
-2889.0,-24.0,-825.0,-140.0,4000.0,2682.0,2387.0,-21.0
-1947.0,-37.0,-863.0,-130.0,4000.0,2580.0,3399.0,156.0
-771.0,-244.0,-906.0,162.0,4000.0,2385.0,4000.0,361.0
245.0,-462.0,-772.0,518.0,4000.0,2125.0,4000.0,713.0
1189.0,-352.0,-585.0,356.0,4000.0,1919.0,3398.0,825.0
1572.0,-91.0,-389.0,-107.0,4000.0,1669.0,-260.0,881.0
2209.0,70.0,-182.0,-362.0,4000.0,1917.0,-3118.0,863.0
2974.0,197.0,-110.0,-481.0,4000.0,2450.0,-4000.0,1065.0
3052.0,316.0,-125.0,-357.0,4000.0,2224.0,-4000.0,1334.0
3369.0,359.0,57.0,-346.0,4000.0,628.0,-4000.0,1585.0
3314.0,290.0,180.0,-190.0,4000.0,-1253.0,-4000.0,1704.0
3804.0,327.0,93.0,-33.0,3527.0,-3894.0,-2237.0,1651.0
4000.0,294.0,253.0,67.0,3020.0,-4000.0,1540.0,1192.0
4000.0,-20.0,337.0,150.0,2485.0,-4000.0,2579.0,601.0
4000.0,-231.0,333.0,88.0,2111.0,-4000.0,2384.0,275.0
4000.0,-437.0,313.0,38.0,1930.0,-4000.0,376.0,194.0
4000.0,-726.0,218.0,-119.0,2047.0,-3258.0,-379.0,379.0
4000.0,-575.0,118.0,-125.0,2060.0,-3453.0,921.0,474.0
-35.0,-244.0,45.0,-85.0,1669.0,-3470.0,1149.0,564.0
-4000.0,-114.0,21.0,-26.0,1340.0,-4000.0,1228.0,352.0
-4000.0,-48.0,67.0,77.0,823.0,-4000.0,23.0,54.0
-4000.0,138.0,146.0,116.0,400.0,-4000.0,-326.0,112.0
-351.0,158.0,215.0,130.0,237.0,-4000.0,-859.0,153.0
4000.0,73.0,241.0,84.0,-75.0,-4000.0,-1497.0,369.0
2976.0,95.0,266.0,-19.0,-295.0,-4000.0,-707.0,876.0
-4000.0,-94.0,419.0,-137.0,-425.0,-4000.0,8.0,1177.0
-4000.0,-391.0,345.0,-190.0,-391.0,-4000.0,608.0,1338.0
-4000.0,-566.0,325.0,-152.0,-516.0,-3852.0,457.0,1384.0
-4000.0,-479.0,253.0,-49.0,-999.0,-3507.0,233.0,1207.0
-4000.0,-48.0,-21.0,12.0,-1534.0,-2774.0,19.0,1077.0
-4000.0,328.0,-212.0,81.0,-1953.0,-2061.0,-75.0,939.0
-4000.0,355.0,-343.0,109.0,-1953.0,-1715.0,-124.0,615.0
-3180.0,411.0,-311.0,130.0,-1963.0,-1526.0,-359.0,586.0
-510.0,381.0,-328.0,142.0,-1700.0,-1396.0,-412.0,686.0
2092.0,290.0,-310.0,75.0,-818.0,-1975.0,-221.0,409.0
4000.0,121.0,-159.0,87.0,119.0,-2608.0,-4.0,296.0
4000.0,190.0,138.0,116.0,1401.0,-1831.0,-26.0,129.0
4000.0,602.0,512.0,182.0,2810.0,-905.0,38.0,18.0
4000.0,373.0,728.0,93.0,3794.0,445.0,42.0,112.0
4000.0,70.0,373.0,-11.0,4000.0,1842.0,167.0,27.0
4000.0,-26.0,-34.0,1.0,4000.0,1279.0,356.0,-270.0
4000.0,-99.0,36.0,5.0,4000.0,-16.0,602.0,-456.0
2406.0,-249.0,16.0,38.0,4000.0,22.0,779.0,-492.0
-1801.0,-379.0,148.0,-106.0,4000.0,-278.0,809.0,-718.0
-2076.0,-179.0,-139.0,-220.0,4000.0,-139.0,788.0,-769.0
-2758.0,181.0,-490.0,-278.0,4000.0,602.0,673.0,-1188.0
-807.0,1441.0,-479.0,-180.0,4000.0,778.0,1019.0,-1497.0
-1809.0,1636.0,-450.0,-39.0,4000.0,1388.0,1164.0,-1558.0
-4000.0,-34.0,-418.0,-49.0,4000.0,1443.0,1137.0,-1823.0
-4000.0,-468.0,-536.0,24.0,4000.0,1531.0,1027.0,-1579.0
-4000.0,304.0,-450.0,64.0,4000.0,1397.0,749.0,-1013.0
-1365.0,1553.0,-373.0,139.0,4000.0,636.0,570.0,-985.0
-125.0,1624.0,-71.0,171.0,4000.0,554.0,506.0,-1404.0
149.0,181.0,134.0,139.0,4000.0,896.0,227.0,-1404.0
-1750.0,1161.0,-3.0,103.0,4000.0,1398.0,-586.0,-1404.0
-2374.0,3535.0,-187.0,-39.0,4000.0,1864.0,-701.0,-1469.0
1030.0,2103.0,-198.0,-60.0,4000.0,2056.0,25.0,-1070.0
4000.0,-1517.0,-86.0,-24.0,4000.0,1929.0,272.0,-655.0
4000.0,-2548.0,30.0,-86.0,4000.0,1991.0,1051.0,-708.0
-449.0,-3656.0,12.0,-145.0,4000.0,2110.0,1581.0,-572.0
-2773.0,-3355.0,-75.0,-173.0,4000.0,2060.0,986.0,-202.0
-2031.0,-2483.0,16.0,-161.0,3745.0,2047.0,1457.0,68.0
504.0,-2371.0,68.0,-79.0,2178.0,2177.0,1602.0,-121.0
1832.0,582.0,111.0,-21.0,466.0,1929.0,1825.0,-883.0
994.0,2624.0,125.0,12.0,-1520.0,1323.0,2684.0,-305.0
4000.0,724.0,179.0,66.0,-3315.0,1207.0,2492.0,-348.0
4000.0,-1590.0,207.0,92.0,-4000.0,1083.0,2232.0,-1526.0
4000.0,-2704.0,228.0,109.0,-4000.0,713.0,1723.0,-2230.0
-3099.0,-2757.0,268.0,68.0,-4000.0,538.0,1125.0,-1658.0
-4000.0,-2009.0,248.0,-19.0,-4000.0,404.0,21.0,-1520.0
-4000.0,-3343.0,207.0,-76.0,-4000.0,2.0,-920.0,-3480.0
-859.0,-1785.0,100.0,-129.0,-4000.0,-620.0,-657.0,-3975.0
-2244.0,376.0,71.0,-191.0,-4000.0,-923.0,-643.0,-3667.0
-3850.0,272.0,57.0,-98.0,-4000.0,-1075.0,-337.0,-4000.0
-2568.0,607.0,31.0,38.0,-4000.0,-1330.0,-172.0,-4000.0
104.0,1843.0,-3.0,-9.0,-4000.0,-1177.0,-941.0,-4000.0
4000.0,2352.0,-64.0,12.0,-4000.0,-1205.0,-2560.0,-3451.0
2809.0,4000.0,-87.0,37.0,-4000.0,-1357.0,-3993.0,-4000.0
640.0,4000.0,-41.0,8.0,-4000.0,-1050.0,-4000.0,-2682.0
4000.0,4000.0,-33.0,7.0,-4000.0,-1010.0,-3660.0,-54.0
4000.0,4000.0,-7.0,-89.0,-4000.0,-1005.0,-2388.0,1216.0
935.0,1843.0,30.0,-146.0,-4000.0,-849.0,-2223.0,1859.0
-3115.0,-4000.0,-32.0,-129.0,-4000.0,-867.0,-4000.0,1462.0
273.0,-4000.0,20.0,-49.0,-4000.0,-635.0,-4000.0,1371.0
-3217.0,-4000.0,17.0,-77.0,-4000.0,-313.0,-4000.0,1399.0
-4000.0,-4000.0,24.0,-61.0,-4000.0,-333.0,-2923.0,1818.0
-4000.0,-4000.0,54.0,-54.0,-4000.0,-35.0,-2288.0,2624.0
-4000.0,-3859.0,11.0,-94.0,-4000.0,80.0,-2056.0,3291.0
-4000.0,-3676.0,41.0,-79.0,-4000.0,-281.0,-2530.0,4000.0
-4000.0,-3705.0,15.0,-129.0,-4000.0,-371.0,-3181.0,4000.0
-3009.0,-2951.0,-1.0,-65.0,-4000.0,-358.0,-2237.0,4000.0
-182.0,-318.0,-31.0,-42.0,-4000.0,-349.0,-550.0,4000.0
1950.0,-765.0,-38.0,-45.0,-4000.0,-419.0,368.0,4000.0
2712.0,-3057.0,-8.0,-11.0,-4000.0,-505.0,-340.0,4000.0
3739.0,-3200.0,-35.0,34.0,-4000.0,-645.0,-1739.0,4000.0
3950.0,-1932.0,-57.0,47.0,-4000.0,-665.0,-2008.0,4000.0
4000.0,29.0,-54.0,54.0,-4000.0,-556.0,-350.0,4000.0
4000.0,2010.0,-37.0,118.0,-4000.0,-338.0,548.0,4000.0
4000.0,2494.0,-41.0,139.0,-4000.0,-44.0,-465.0,4000.0
4000.0,3127.0,-69.0,133.0,-4000.0,-32.0,-1801.0,4000.0
4000.0,4000.0,-36.0,134.0,-4000.0,164.0,-1783.0,4000.0
4000.0,4000.0,5.0,174.0,-4000.0,223.0,-598.0,4000.0
4000.0,4000.0,-6.0,107.0,-4000.0,256.0,311.0,4000.0
4000.0,2078.0,56.0,51.0,-4000.0,229.0,233.0,4000.0
4000.0,99.0,38.0,1.0,-4000.0,-313.0,-555.0,4000.0
-1414.0,440.0,2.0,-110.0,-4000.0,-611.0,-546.0,3673.0
-4000.0,4000.0,27.0,-166.0,-4000.0,-796.0,56.0,3127.0
-4000.0,4000.0,11.0,-74.0,-4000.0,-1031.0,404.0,2754.0
-4000.0,4000.0,24.0,356.0,-4000.0,-474.0,43.0,2442.0
-4000.0,1168.0,-1.0,638.0,-3767.0,953.0,-66.0,2507.0
-1091.0,-1147.0,20.0,402.0,-3041.0,1417.0,286.0,1769.0
-1733.0,-2530.0,21.0,7.0,-2212.0,1121.0,481.0,1077.0
-3099.0,-800.0,17.0,-316.0,-450.0,1214.0,445.0,816.0
-3950.0,-438.0,11.0,-430.0,1352.0,1222.0,390.0,296.0
-4000.0,2469.0,-5.0,-373.0,2125.0,1254.0,824.0,-538.0
-4000.0,4000.0,4.0,-289.0,1901.0,1051.0,1052.0,-1697.0
-4000.0,-770.0,-14.0,-279.0,2160.0,1456.0,1019.0,-2228.0
-4000.0,-3472.0,-3.0,-306.0,3334.0,1840.0,927.0,-2800.0
-3034.0,-4000.0,6.0,-198.0,3074.0,1333.0,1027.0,-3318.0
-3034.0,-4000.0,7.0,-110.0,2320.0,311.0,1345.0,-3610.0
-3372.0,-4000.0,10.0,-152.0,2878.0,-661.0,1280.0,-3923.0
-3489.0,-4000.0,-5.0,-136.0,4000.0,-1310.0,1345.0,-4000.0
-744.0,-4000.0,-25.0,-195.0,4000.0,-2725.0,1575.0,-4000.0
2158.0,-4000.0,-9.0,-194.0,4000.0,-4000.0,1670.0,-4000.0
3041.0,-1870.0,-20.0,-50.0,4000.0,-4000.0,1776.0,-4000.0
3004.0,1754.0,-11.0,-55.0,4000.0,-4000.0,1776.0,-4000.0
222.0,4000.0,8.0,-22.0,4000.0,-3600.0,1906.0,-4000.0
-2631.0,4000.0,-22.0,64.0,4000.0,-123.0,2114.0,-4000.0
-1214.0,4000.0,-60.0,161.0,4000.0,3474.0,2047.0,-4000.0
2198.0,3583.0,-48.0,209.0,4000.0,4000.0,1908.0,-4000.0
4000.0,2997.0,-26.0,179.0,4000.0,4000.0,1908.0,-4000.0
4000.0,2921.0,-57.0,217.0,4000.0,4000.0,1731.0,-4000.0
4000.0,2803.0,-17.0,187.0,4000.0,4000.0,1580.0,-4000.0
4000.0,2754.0,-21.0,182.0,4000.0,4000.0,1446.0,-4000.0
1280.0,2103.0,-28.0,205.0,4000.0,3604.0,1332.0,-4000.0
538.0,1942.0,9.0,173.0,4000.0,3231.0,1255.0,-4000.0
-147.0,1748.0,16.0,130.0,4000.0,2840.0,1141.0,-4000.0
-1391.0,1908.0,20.0,96.0,4000.0,2512.0,1084.0,-4000.0
-3962.0,1831.0,3.0,71.0,4000.0,2099.0,1019.0,-4000.0
-3619.0,1843.0,20.0,46.0,4000.0,1864.0,995.0,-3995.0
-1284.0,1803.0,48.0,31.0,4000.0,1657.0,934.0,-3007.0
-2220.0,1713.0,17.0,-24.0,4000.0,1222.0,897.0,-2004.0
-4000.0,1896.0,15.0,-52.0,4000.0,725.0,838.0,-1339.0
-4000.0,2202.0,0.0,-36.0,4000.0,249.0,734.0,-804.0
3843.0,2803.0,-9.0,-29.0,4000.0,-156.0,673.0,-605.0
4000.0,3127.0,-26.0,-57.0,4000.0,-474.0,571.0,-673.0
4000.0,2624.0,-51.0,-56.0,4000.0,-573.0,498.0,-716.0
4000.0,1331.0,-6.0,-30.0,4000.0,-741.0,498.0,-659.0
2028.0,-133.0,-28.0,-1.0,4000.0,-1010.0,439.0,-659.0
1498.0,-1247.0,-12.0,68.0,4000.0,-1070.0,407.0,-537.0
-1227.0,-1570.0,-30.0,87.0,4000.0,-1075.0,506.0,-357.0
-1639.0,-1916.0,-44.0,29.0,4000.0,-1038.0,427.0,-228.0
-3412.0,-2361.0,-46.0,-30.0,4000.0,-1054.0,217.0,-124.0
-3506.0,-2406.0,-79.0,-81.0,3102.0,-1135.0,112.0,19.0
-3506.0,-2110.0,-38.0,-80.0,2581.0,-1188.0,110.0,176.0
-3915.0,-1181.0,-54.0,-79.0,1907.0,-1183.0,93.0,332.0
-4000.0,-505.0,-98.0,-69.0,1287.0,-1140.0,20.0,434.0
-4000.0,-470.0,-106.0,-180.0,1279.0,-1140.0,-127.0,434.0
-4000.0,-662.0,-108.0,-275.0,1254.0,-1140.0,-214.0,456.0
-4000.0,-812.0,-85.0,-273.0,1417.0,-1161.0,-147.0,314.0
1254.0,-785.0,-79.0,-300.0,1508.0,-982.0,-233.0,165.0
3674.0,-836.0,-89.0,-273.0,1533.0,-790.0,-104.0,-5.0
2157.0,-895.0,-93.0,-237.0,1800.0,-710.0,81.0,-297.0
778.0,-887.0,-53.0,-107.0,1482.0,-613.0,-49.0,-514.0
-75.0,-751.0,-49.0,-121.0,1056.0,-529.0,-143.0,-594.0
179.0,-334.0,-36.0,-81.0,575.0,-459.0,-127.0,-650.0
595.0,451.0,16.0,50.0,327.0,-449.0,4.0,-675.0
1429.0,1380.0,-18.0,54.0,104.0,-459.0,-61.0,-622.0
2067.0,2274.0,-22.0,40.0,-163.0,-507.0,0.0,-659.0
1723.0,3439.0,-14.0,-37.0,-285.0,-594.0,66.0,-753.0
1611.0,3860.0,-18.0,-18.0,-421.0,-548.0,-61.0,-797.0
1026.0,2788.0,-27.0,-45.0,-27.0,-511.0,-29.0,-594.0
-771.0,933.0,-64.0,-32.0,16.0,-414.0,-182.0,-378.0
-1915.0,-732.0,-43.0,2.0,513.0,-327.0,-200.0,-158.0
-1531.0,-1074.0,-56.0,-10.0,1071.0,-261.0,-125.0,133.0
-1353.0,2103.0,-88.0,34.0,1539.0,-120.0,-117.0,387.0
-1155.0,4000.0,-24.0,6.0,2085.0,-61.0,-246.0,648.0
-850.0,4000.0,-11.0,19.0,1970.0,49.0,-424.0,863.0
-615.0,4000.0,38.0,65.0,2955.0,126.0,-323.0,1069.0
-117.0,-2951.0,57.0,100.0,3838.0,219.0,-298.0,1241.0
274.0,-4000.0,71.0,85.0,3493.0,374.0,-363.0,1403.0
692.0,-4000.0,99.0,116.0,2441.0,522.0,-345.0,1527.0
798.0,-4000.0,81.0,150.0,2124.0,589.0,-531.0,1633.0
464.0,-4000.0,116.0,199.0,2578.0,532.0,-652.0,1663.0
1297.0,-4000.0,77.0,467.0,2889.0,506.0,-565.0,1651.0
4000.0,-4000.0,83.0,699.0,2646.0,425.0,-522.0,1623.0
4000.0,-2269.0,79.0,465.0,1842.0,303.0,-664.0,1541.0
4000.0,-1671.0,73.0,145.0,1222.0,136.0,-873.0,1511.0
1937.0,1184.0,74.0,-144.0,716.0,-91.0,-772.0,1462.0
-830.0,2419.0,42.0,-432.0,562.0,-155.0,-790.0,1456.0
-749.0,1645.0,24.0,-377.0,166.0,-274.0,-862.0,1437.0
-1039.0,1673.0,30.0,-393.0,-99.0,-741.0,-901.0,1381.0
-1300.0,1682.0,36.0,-332.0,-172.0,-875.0,-652.0,1334.0
-1585.0,2338.0,-3.0,-359.0,-150.0,-912.0,-227.0,1392.0
-2179.0,2673.0,-27.0,-411.0,-186.0,-872.0,-112.0,1468.0
-2452.0,3049.0,-49.0,-458.0,-490.0,-481.0,220.0,1521.0
-3099.0,2997.0,-67.0,-351.0,-653.0,-521.0,563.0,1574.0
-4000.0,2884.0,-73.0,-78.0,-773.0,-338.0,889.0,1586.0
-4000.0,2919.0,-114.0,-26.0,-1064.0,-183.0,1060.0,1584.0
-4000.0,3062.0,-159.0,55.0,-1463.0,-112.0,1052.0,1660.0
-296.0,3062.0,-291.0,59.0,-2018.0,-116.0,945.0,1704.0
2127.0,2689.0,-628.0,34.0,-2887.0,-120.0,738.0,1623.0
4000.0,2429.0,-466.0,-39.0,-3649.0,284.0,535.0,1521.0
3573.0,2156.0,-269.0,-39.0,-4000.0,376.0,116.0,1338.0
3052.0,1896.0,-380.0,-46.0,-3923.0,301.0,-200.0,1207.0
1866.0,1689.0,20.0,7.0,-3315.0,-94.0,-277.0,1150.0
-1495.0,1510.0,354.0,96.0,-2859.0,-385.0,-101.0,1183.0
-4000.0,1243.0,533.0,107.0,-2887.0,-354.0,364.0,1241.0
-3046.0,1051.0,241.0,122.0,-3274.0,-122.0,746.0,1142.0
1358.0,855.0,70.0,76.0,-2513.0,26.0,259.0,938.0
2922.0,709.0,560.0,59.0,-418.0,105.0,-613.0,609.0
4000.0,489.0,699.0,-28.0,1189.0,231.0,-986.0,308.0
4000.0,276.0,976.0,26.0,1995.0,74.0,-1057.0,222.0
4000.0,162.0,1098.0,87.0,2296.0,-109.0,-1054.0,279.0
2909.0,46.0,915.0,122.0,2825.0,-340.0,-1006.0,296.0
1081.0,22.0,663.0,197.0,3085.0,-352.0,-750.0,208.0
356.0,-80.0,463.0,252.0,2556.0,-546.0,-489.0,154.0
-481.0,-118.0,393.0,282.0,1769.0,-706.0,-326.0,28.0
-712.0,-133.0,64.0,238.0,692.0,-731.0,-111.0,-113.0
-1343.0,-125.0,-96.0,207.0,-751.0,-855.0,-22.0,-209.0
-1233.0,-84.0,-85.0,220.0,-2105.0,-794.0,-283.0,-248.0
-1227.0,-99.0,-122.0,467.0,-2578.0,-802.0,-680.0,-279.0
-931.0,-163.0,-274.0,711.0,-2729.0,-721.0,-912.0,-406.0
-580.0,-258.0,-320.0,428.0,-3132.0,-743.0,-917.0,-482.0
-497.0,-261.0,-277.0,-112.0,-3456.0,-743.0,-676.0,-553.0
-493.0,-241.0,-194.0,-362.0,-3262.0,-584.0,-477.0,-647.0
-493.0,-226.0,-185.0,-474.0,-3066.0,-316.0,-391.0,-753.0
-380.0,-209.0,-228.0,-420.0,-2887.0,89.0,-410.0,-824.0
-428.0,-183.0,-170.0,-366.0,-2806.0,480.0,-599.0,-870.0
-318.0,-155.0,-182.0,-370.0,-2252.0,902.0,-802.0,-859.0
-360.0,-188.0,-203.0,-223.0,-1442.0,1059.0,-652.0,-744.0
-238.0,-236.0,-177.0,-38.0,-1263.0,1077.0,-10.0,-649.0
-232.0,-318.0,-206.0,20.0,-1031.0,1148.0,577.0,-586.0
-258.0,-440.0,-233.0,-61.0,-667.0,1142.0,693.0,-529.0
-288.0,-530.0,-242.0,-28.0,-335.0,1117.0,460.0,-518.0
-286.0,-527.0,-268.0,-20.0,-98.0,1118.0,158.0,-484.0
-193.0,-465.0,-220.0,-2.0,420.0,1258.0,88.0,-449.0
-156.0,-403.0,-198.0,16.0,1227.0,1385.0,376.0,-407.0
-99.0,-334.0,-194.0,-15.0,1733.0,1331.0,413.0,-334.0
-124.0,-347.0,-182.0,-9.0,1922.0,1214.0,188.0,-301.0
-92.0,-314.0,-221.0,-74.0,2165.0,1018.0,139.0,-269.0
-126.0,-220.0,-204.0,-124.0,2224.0,793.0,100.0,-224.0
-106.0,-176.0,-214.0,-123.0,2189.0,636.0,73.0,-179.0
-111.0,-207.0,-220.0,-32.0,2124.0,477.0,134.0,-150.0
-143.0,-282.0,-170.0,43.0,1775.0,315.0,229.0,-166.0
-166.0,-328.0,-170.0,55.0,1462.0,203.0,162.0,-193.0
-132.0,-300.0,-145.0,8.0,1247.0,231.0,91.0,-221.0
-58.0,-239.0,-143.0,22.0,790.0,325.0,-36.0,-260.0
-47.0,-244.0,-165.0,-3.0,272.0,300.0,6.0,-324.0
24.0,-190.0,-152.0,-31.0,22.0,260.0,177.0,-305.0
-16.0,-147.0,-154.0,28.0,-196.0,376.0,248.0,-245.0
-16.0,-161.0,-147.0,46.0,-326.0,596.0,303.0,-147.0
-2.0,-113.0,-144.0,67.0,-588.0,749.0,445.0,-209.0
49.0,-75.0,-140.0,105.0,-746.0,858.0,642.0,-406.0
147.0,-39.0,-84.0,182.0,-790.0,921.0,673.0,-484.0
186.0,-36.0,-97.0,209.0,-924.0,850.0,622.0,-543.0
256.0,-18.0,-96.0,170.0,-1194.0,758.0,576.0,-496.0
313.0,30.0,-49.0,81.0,-1849.0,622.0,759.0,-480.0
342.0,57.0,-48.0,-94.0,-2676.0,414.0,884.0,-529.0
340.0,86.0,-68.0,-260.0,-3898.0,311.0,767.0,-431.0
371.0,112.0,-76.0,-450.0,-4000.0,262.0,620.0,-259.0
342.0,116.0,-99.0,-833.0,-4000.0,346.0,350.0,28.0
296.0,64.0,-114.0,-951.0,-4000.0,402.0,107.0,229.0
247.0,28.0,-96.0,-812.0,-4000.0,341.0,111.0,169.0
86.0,-69.0,-78.0,-746.0,-4000.0,368.0,216.0,-18.0
-109.0,-202.0,30.0,-293.0,-4000.0,234.0,116.0,-144.0
-285.0,-267.0,114.0,71.0,-4000.0,-151.0,-136.0,-144.0
-407.0,-279.0,80.0,203.0,-4000.0,-214.0,-406.0,163.0
-509.0,-267.0,56.0,182.0,-4000.0,145.0,207.0,803.0
-475.0,-218.0,56.0,49.0,-4000.0,336.0,1190.0,1201.0
-280.0,-103.0,77.0,85.0,-4000.0,315.0,1288.0,1338.0
-90.0,-3.0,122.0,287.0,-4000.0,346.0,942.0,1403.0
56.0,82.0,141.0,576.0,-4000.0,929.0,417.0,1399.0
149.0,221.0,122.0,494.0,-4000.0,1531.0,136.0,1460.0
196.0,241.0,93.0,334.0,-4000.0,1344.0,135.0,1621.0
227.0,173.0,96.0,134.0,-1963.0,1188.0,98.0,1834.0
157.0,170.0,55.0,-30.0,334.0,1222.0,-32.0,2042.0
-169.0,172.0,19.0,-68.0,2441.0,944.0,2.0,2248.0
-482.0,138.0,39.0,-55.0,4000.0,-104.0,219.0,2369.0
-582.0,-102.0,113.0,84.0,4000.0,-1127.0,311.0,2419.0
-675.0,-423.0,126.0,138.0,4000.0,-1850.0,232.0,2367.0
-599.0,-429.0,99.0,168.0,4000.0,-2620.0,41.0,2288.0
-38.0,-167.0,119.0,196.0,4000.0,-3063.0,-87.0,2118.0
521.0,46.0,150.0,170.0,4000.0,-2983.0,-116.0,1859.0
566.0,95.0,107.0,11.0,4000.0,-1942.0,-28.0,1638.0
456.0,106.0,-26.0,-198.0,4000.0,-1311.0,28.0,1390.0
465.0,110.0,-46.0,-324.0,4000.0,-1376.0,50.0,1187.0
433.0,155.0,40.0,-251.0,4000.0,-1896.0,102.0,1063.0
399.0,160.0,179.0,-223.0,4000.0,-2448.0,152.0,932.0
331.0,158.0,205.0,-167.0,4000.0,-2245.0,254.0,658.0
178.0,138.0,260.0,-64.0,4000.0,-2156.0,294.0,406.0
-3.0,65.0,317.0,-48.0,4000.0,-1751.0,113.0,230.0
-125.0,17.0,299.0,37.0,4000.0,-1651.0,65.0,133.0
-152.0,-12.0,343.0,84.0,4000.0,-1550.0,1.0,97.0
-323.0,-15.0,263.0,113.0,4000.0,-1251.0,-37.0,144.0
-474.0,-44.0,231.0,128.0,4000.0,-1162.0,-172.0,282.0
-412.0,-40.0,201.0,114.0,4000.0,-1100.0,-651.0,160.0
-307.0,34.0,136.0,120.0,4000.0,-1161.0,-907.0,-69.0
-229.0,106.0,113.0,110.0,4000.0,-997.0,-986.0,-221.0
-205.0,73.0,80.0,97.0,-698.0,-816.0,-836.0,-489.0
-170.0,57.0,36.0,94.0,-4000.0,-354.0,-611.0,-753.0
33.0,46.0,0.0,81.0,-1469.0,-17.0,-542.0,-1013.0
71.0,47.0,-30.0,97.0,4000.0,156.0,-657.0,-1265.0
-10.0,95.0,-57.0,129.0,4000.0,601.0,-902.0,-1469.0
-35.0,90.0,-34.0,116.0,4000.0,636.0,-966.0,-1534.0
-47.0,135.0,-27.0,129.0,-4000.0,45.0,-862.0,-1310.0
8.0,124.0,-28.0,104.0,-4000.0,-325.0,-723.0,-1339.0
-32.0,118.0,-53.0,99.0,-4000.0,-37.0,-716.0,-1518.0
-93.0,131.0,-77.0,310.0,-4000.0,331.0,-774.0,-1540.0
-119.0,133.0,-124.0,581.0,-4000.0,303.0,-817.0,-1709.0
-117.0,132.0,-152.0,258.0,-4000.0,406.0,-839.0,-1697.0
-128.0,75.0,-142.0,-279.0,-4000.0,1266.0,-743.0,-1774.0
-142.0,109.0,-146.0,-420.0,-4000.0,1148.0,-646.0,-1829.0
-154.0,130.0,-121.0,-466.0,-4000.0,22.0,-555.0,-1526.0
-181.0,111.0,-153.0,-433.0,-4000.0,54.0,-493.0,-1135.0
-144.0,21.0,-129.0,-552.0,-4000.0,693.0,-448.0,-866.0
-214.0,-22.0,-25.0,-539.0,-4000.0,1157.0,-363.0,-628.0
-186.0,6.0,14.0,-191.0,-4000.0,1734.0,-179.0,-232.0
-106.0,19.0,-2.0,42.0,-4000.0,1547.0,-29.0,145.0
-172.0,117.0,5.0,240.0,-4000.0,701.0,72.0,352.0
-228.0,105.0,-6.0,264.0,-4000.0,1083.0,107.0,515.0
-247.0,44.0,-49.0,155.0,-3970.0,1083.0,25.0,612.0
-109.0,-142.0,-87.0,155.0,-2081.0,498.0,45.0,535.0
85.0,-304.0,-255.0,161.0,-2010.0,427.0,93.0,526.0
-53.0,-196.0,-507.0,134.0,-3083.0,441.0,228.0,629.0
-474.0,-82.0,-306.0,59.0,-4000.0,583.0,354.0,666.0
-1300.0,-130.0,160.0,-14.0,-3754.0,271.0,441.0,731.0
-2643.0,-99.0,337.0,9.0,-2057.0,319.0,441.0,853.0
-4000.0,34.0,288.0,-73.0,-1182.0,249.0,392.0,1142.0
-4000.0,20.0,174.0,-46.0,-1390.0,170.0,409.0,1281.0
-825.0,9.0,66.0,18.0,-2010.0,274.0,203.0,1150.0
1689.0,-27.0,-147.0,-42.0,-1398.0,237.0,86.0,1207.0
2712.0,-28.0,-180.0,-6.0,792.0,358.0,8.0,1053.0
2793.0,-24.0,-181.0,29.0,4000.0,253.0,-137.0,584.0
1189.0,-59.0,-200.0,51.0,4000.0,189.0,-78.0,401.0
-98.0,21.0,-163.0,199.0,4000.0,86.0,-94.0,296.0
-844.0,160.0,-149.0,533.0,4000.0,-12.0,-26.0,54.0
-719.0,238.0,-41.0,858.0,4000.0,-57.0,200.0,91.0
-771.0,205.0,-108.0,655.0,4000.0,-133.0,858.0,399.0
-316.0,227.0,-187.0,199.0,4000.0,-129.0,1208.0,569.0
-67.0,227.0,-159.0,-92.0,4000.0,-187.0,824.0,695.0
14.0,162.0,-71.0,-324.0,4000.0,-297.0,598.0,1182.0
517.0,106.0,-34.0,-386.0,4000.0,-332.0,225.0,1468.0
782.0,81.0,-83.0,-523.0,4000.0,-442.0,59.0,1541.0
1124.0,-17.0,-128.0,-700.0,4000.0,-565.0,-51.0,1792.0
1246.0,-112.0,-54.0,-549.0,4000.0,-591.0,-390.0,2029.0
1507.0,-135.0,52.0,-401.0,4000.0,-645.0,-676.0,2051.0
1637.0,-172.0,44.0,-388.0,4000.0,-642.0,-180.0,1598.0
1605.0,-169.0,46.0,-326.0,4000.0,-672.0,1208.0,1460.0
1569.0,-167.0,0.0,-255.0,4000.0,-802.0,2309.0,1221.0
1441.0,-137.0,5.0,-247.0,4000.0,-875.0,2514.0,328.0
1303.0,-90.0,56.0,-190.0,4000.0,-862.0,1735.0,-111.0
1246.0,-70.0,95.0,-84.0,4000.0,-875.0,1125.0,-647.0
1146.0,-75.0,124.0,-28.0,4000.0,-797.0,897.0,-1208.0
1020.0,-82.0,85.0,13.0,4000.0,-703.0,595.0,-1612.0
979.0,-118.0,17.0,-43.0,4000.0,-768.0,380.0,-2111.0
935.0,-163.0,-17.0,-162.0,4000.0,-849.0,141.0,-2350.0
847.0,-125.0,24.0,-83.0,4000.0,-859.0,-104.0,-2611.0
692.0,-82.0,50.0,35.0,4000.0,-867.0,-187.0,-2651.0
660.0,-70.0,55.0,113.0,4000.0,-816.0,-14.0,-2876.0
544.0,-57.0,93.0,106.0,4000.0,-731.0,175.0,-3452.0
464.0,-34.0,96.0,71.0,4000.0,-630.0,368.0,-3517.0
315.0,-38.0,84.0,100.0,3232.0,-548.0,474.0,-3524.0
-40.0,10.0,83.0,97.0,1800.0,-459.0,457.0,-3545.0
-99.0,8.0,73.0,23.0,423.0,-416.0,404.0,-2876.0
130.0,-8.0,71.0,-71.0,-506.0,-394.0,368.0,-2324.0
256.0,14.0,93.0,-141.0,-942.0,-417.0,441.0,-2676.0
204.0,-5.0,98.0,-152.0,-1117.0,-407.0,521.0,-3450.0
-280.0,6.0,41.0,-121.0,-1528.0,-267.0,677.0,-4000.0
-714.0,-20.0,-25.0,-105.0,-2147.0,-129.0,878.0,-4000.0
-379.0,-35.0,-57.0,-62.0,-2794.0,9.0,1098.0,-4000.0
4.0,-41.0,-56.0,-40.0,-3262.0,113.0,1115.0,-4000.0
504.0,-55.0,-23.0,-4.0,-3511.0,268.0,1027.0,-4000.0
1181.0,-2.0,3.0,26.0,-3456.0,392.0,968.0,-3588.0
1181.0,60.0,-35.0,8.0,-3327.0,390.0,595.0,-2629.0
900.0,34.0,-26.0,50.0,-3197.0,479.0,335.0,-2457.0
517.0,-15.0,-54.0,42.0,-3380.0,550.0,143.0,-1558.0
325.0,25.0,-82.0,62.0,-3905.0,613.0,-2.0,-758.0
116.0,3.0,-55.0,93.0,-4000.0,758.0,-6.0,-804.0
-105.0,-43.0,-77.0,95.0,-4000.0,902.0,-12.0,-514.0
-258.0,-59.0,-79.0,132.0,-4000.0,1026.0,149.0,-245.0
-370.0,-48.0,-72.0,172.0,-4000.0,983.0,-60.0,153.0
-359.0,-46.0,-42.0,207.0,-4000.0,928.0,-379.0,550.0
-482.0,-72.0,-60.0,178.0,-4000.0,921.0,-469.0,913.0
-784.0,-51.0,-68.0,171.0,-4000.0,933.0,-706.0,1156.0
-1324.0,-45.0,-82.0,134.0,-4000.0,988.0,-876.0,1260.0
-1682.0,-3.0,-77.0,46.0,-4000.0,994.0,-1055.0,1260.0
-1560.0,20.0,-45.0,4.0,-4000.0,953.0,-986.0,1334.0
-749.0,14.0,-84.0,-46.0,-4000.0,888.0,-676.0,1519.0
-150.0,27.0,-112.0,-72.0,-4000.0,888.0,-332.0,1573.0
220.0,36.0,-150.0,-124.0,-4000.0,967.0,-102.0,1638.0
438.0,37.0,-139.0,-133.0,-4000.0,1026.0,76.0,1574.0
89.0,21.0,-64.0,-53.0,-4000.0,983.0,209.0,1504.0
-296.0,34.0,-53.0,-42.0,-4000.0,953.0,131.0,1411.0
-1153.0,37.0,-92.0,-84.0,-4000.0,902.0,203.0,1384.0
-1560.0,51.0,-103.0,-87.0,-4000.0,876.0,154.0,1326.0
-1110.0,87.0,-105.0,-18.0,-4000.0,880.0,-65.0,1281.0
-604.0,80.0,-105.0,10.0,-4000.0,831.0,-151.0,1216.0
-109.0,66.0,-94.0,-5.0,-4000.0,867.0,-226.0,1156.0
169.0,98.0,-67.0,3.0,-4000.0,831.0,-263.0,1134.0
86.0,90.0,-33.0,8.0,-4000.0,784.0,-334.0,1077.0
0.0,73.0,-85.0,1.0,-4000.0,734.0,-394.0,1077.0
-181.0,79.0,-202.0,-10.0,-4000.0,693.0,-375.0,1012.0
-233.0,34.0,-118.0,0.0,-4000.0,693.0,-420.0,1020.0
-189.0,9.0,141.0,-54.0,-4000.0,596.0,-458.0,992.0
-303.0,0.0,251.0,-75.0,-4000.0,480.0,-500.0,947.0
-234.0,3.0,299.0,-74.0,-4000.0,401.0,-582.0,947.0
-272.0,8.0,280.0,-59.0,-4000.0,309.0,-651.0,935.0
-314.0,14.0,343.0,1.0,-4000.0,311.0,-811.0,935.0
-392.0,20.0,394.0,10.0,-3575.0,376.0,-920.0,890.0
-437.0,22.0,313.0,-3.0,-2075.0,463.0,-908.0,914.0
-317.0,15.0,270.0,-10.0,-772.0,532.0,-876.0,927.0
-277.0,3.0,158.0,-31.0,-17.0,536.0,-836.0,882.0
-207.0,3.0,107.0,-24.0,318.0,506.0,-923.0,922.0
-196.0,18.0,49.0,-5.0,692.0,415.0,-986.0,881.0
-171.0,47.0,23.0,-29.0,1313.0,441.0,-941.0,808.0
-166.0,63.0,81.0,-9.0,2581.0,636.0,-924.0,914.0
-185.0,60.0,152.0,49.0,3789.0,795.0,-923.0,979.0
-148.0,72.0,175.0,85.0,4000.0,788.0,-923.0,1020.0
21.0,105.0,85.0,115.0,4000.0,544.0,-876.0,1112.0
196.0,124.0,6.0,77.0,4000.0,315.0,-837.0,1057.0
79.0,92.0,-88.0,104.0,4000.0,136.0,-711.0,1026.0
-45.0,73.0,-93.0,108.0,4000.0,56.0,-489.0,1053.0
-148.0,68.0,-128.0,-32.0,4000.0,104.0,-110.0,980.0
-461.0,49.0,-180.0,-149.0,4000.0,150.0,135.0,914.0
-1416.0,-21.0,-171.0,-187.0,3606.0,219.0,17.0,882.0
-2256.0,-44.0,-121.0,-161.0,3008.0,143.0,-250.0,710.0
-1524.0,-28.0,-53.0,-120.0,2321.0,-3.0,-791.0,499.0
-385.0,-59.0,-67.0,-123.0,1930.0,-135.0,-1168.0,634.0
342.0,-41.0,-121.0,-95.0,1340.0,-297.0,-1291.0,961.0
782.0,-24.0,-180.0,-45.0,1482.0,-327.0,-1599.0,1077.0
514.0,8.0,-454.0,-36.0,1930.0,-323.0,-2172.0,1176.0
-43.0,9.0,-589.0,52.0,2419.0,-332.0,-2793.0,1272.0
-719.0,49.0,-198.0,-3.0,2683.0,-362.0,-3147.0,1252.0
-1019.0,120.0,-28.0,-65.0,2711.0,-416.0,-3390.0,1198.0
-649.0,120.0,83.0,-61.0,2776.0,-394.0,-3390.0,973.0
-283.0,150.0,368.0,-127.0,2642.0,-416.0,-3314.0,784.0
-39.0,136.0,385.0,-130.0,2695.0,-358.0,-2970.0,871.0
16.0,99.0,427.0,-162.0,2422.0,-245.0,-2441.0,876.0
-63.0,70.0,498.0,-92.0,1722.0,-161.0,-1962.0,765.0
-66.0,57.0,533.0,25.0,758.0,-20.0,-1527.0,629.0
-63.0,50.0,541.0,108.0,-145.0,87.0,-1168.0,569.0
-46.0,5.0,511.0,142.0,-502.0,167.0,-811.0,490.0
21.0,13.0,396.0,106.0,-353.0,237.0,-550.0,295.0
85.0,7.0,290.0,92.0,-261.0,326.0,-71.0,60.0
167.0,-7.0,141.0,0.0,-593.0,427.0,82.0,-186.0
136.0,19.0,-198.0,-146.0,-1398.0,368.0,-245.0,-211.0
17.0,-14.0,-342.0,-227.0,-2385.0,326.0,-167.0,-124.0
43.0,16.0,-320.0,-211.0,-2729.0,374.0,481.0,-27.0
23.0,67.0,-316.0,-161.0,-3132.0,457.0,1129.0,332.0
34.0,45.0,-219.0,-124.0,-3640.0,636.0,1734.0,850.0
18.0,12.0,-248.0,-66.0,-3767.0,831.0,2426.0,1130.0
-48.0,29.0,-324.0,-21.0,-3582.0,1083.0,2843.0,1012.0
-106.0,1.0,-306.0,15.0,-3661.0,1253.0,3086.0,700.0
-159.0,-1.0,-298.0,67.0,-4000.0,1313.0,2879.0,580.0
-125.0,12.0,-447.0,115.0,-4000.0,1331.0,2061.0,479.0
-99.0,-22.0,-625.0,150.0,-4000.0,1214.0,934.0,331.0
-91.0,3.0,-515.0,116.0,-4000.0,1254.0,148.0,239.0
-175.0,-14.0,-379.0,100.0,-4000.0,1207.0,-63.0,135.0
-225.0,-28.0,48.0,112.0,-4000.0,1053.0,45.0,-54.0
-214.0,-45.0,378.0,104.0,-4000.0,858.0,107.0,-251.0
-253.0,-69.0,301.0,99.0,-4000.0,608.0,116.0,-410.0
-321.0,-52.0,343.0,90.0,-4000.0,412.0,220.0,-484.0
-343.0,-64.0,107.0,144.0,-4000.0,232.0,48.0,-543.0
-309.0,-45.0,-36.0,92.0,-4000.0,271.0,-6.0,-618.0
-274.0,-44.0,-71.0,-110.0,-3970.0,431.0,148.0,-649.0
-307.0,-30.0,-113.0,-188.0,-3726.0,571.0,297.0,-659.0
-296.0,-41.0,-52.0,-28.0,-3274.0,394.0,525.0,-647.0
-250.0,-76.0,-44.0,-25.0,-3054.0,131.0,809.0,-659.0
-261.0,-58.0,-60.0,-271.0,-3315.0,69.0,1060.0,-669.0
-234.0,-57.0,-129.0,-336.0,-3066.0,115.0,1019.0,-673.0
-241.0,-31.0,-68.0,-200.0,-1609.0,144.0,759.0,-683.0
-232.0,-57.0,1.0,-115.0,-698.0,289.0,809.0,-679.0
-157.0,-53.0,-242.0,-52.0,94.0,497.0,881.0,-673.0
-71.0,-33.0,-820.0,15.0,1710.0,400.0,702.0,-646.0
98.0,-42.0,-890.0,16.0,4000.0,163.0,954.0,-620.0
277.0,-28.0,-470.0,38.0,4000.0,-277.0,1379.0,-588.0
303.0,-33.0,35.0,12.0,4000.0,-597.0,1528.0,-562.0
315.0,-32.0,772.0,-11.0,4000.0,-875.0,1410.0,-489.0
367.0,-24.0,1184.0,20.0,4000.0,-1075.0,1098.0,-452.0
-305.0,-42.0,1119.0,24.0,4000.0,-1183.0,779.0,-448.0
-1616.0,-47.0,961.0,19.0,4000.0,-1636.0,548.0,-435.0
-951.0,-46.0,694.0,26.0,4000.0,-2156.0,290.0,-476.0
870.0,-44.0,421.0,35.0,4000.0,-2105.0,38.0,-414.0
1485.0,-24.0,186.0,30.0,4000.0,-1586.0,-244.0,-406.0
1938.0,-27.0,-51.0,77.0,4000.0,-1652.0,-448.0,-456.0
1234.0,-17.0,-206.0,142.0,4000.0,-2014.0,-546.0,-467.0
514.0,42.0,-338.0,123.0,4000.0,-2105.0,-745.0,-431.0
473.0,41.0,-407.0,99.0,4000.0,-2547.0,-1096.0,-435.0
318.0,26.0,-385.0,73.0,4000.0,-2673.0,-1793.0,-464.0
418.0,19.0,-198.0,93.0,4000.0,-2738.0,-2675.0,-431.0
412.0,36.0,-182.0,138.0,4000.0,-3317.0,-3627.0,-424.0
692.0,64.0,-259.0,154.0,4000.0,-3763.0,-4000.0,-419.0
825.0,34.0,-212.0,144.0,4000.0,-4000.0,-4000.0,-514.0
863.0,20.0,-144.0,84.0,4000.0,-4000.0,-4000.0,-529.0
790.0,-1.0,-69.0,-32.0,4000.0,-4000.0,-4000.0,-553.0
615.0,44.0,-52.0,-173.0,4000.0,-4000.0,-4000.0,-605.0
430.0,33.0,-38.0,-198.0,4000.0,-4000.0,-1977.0,-603.0
380.0,-15.0,38.0,-141.0,3541.0,-4000.0,3216.0,-618.0
382.0,-8.0,187.0,-98.0,-259.0,-4000.0,4000.0,-606.0
277.0,-18.0,189.0,3.0,403.0,-4000.0,4000.0,-638.0
318.0,3.0,149.0,377.0,4000.0,-4000.0,4000.0,-638.0
255.0,-6.0,160.0,490.0,4000.0,-4000.0,4000.0,-653.0
269.0,-14.0,113.0,-128.0,4000.0,-4000.0,4000.0,-651.0
250.0,-7.0,83.0,-450.0,4000.0,-3698.0,4000.0,-692.0
314.0,-20.0,60.0,-532.0,4000.0,-3234.0,4000.0,-753.0
346.0,-2.0,31.0,-513.0,4000.0,-2608.0,4000.0,-801.0
281.0,-4.0,3.0,-383.0,4000.0,-1896.0,4000.0,-862.0
306.0,9.0,29.0,-388.0,4000.0,-1489.0,4000.0,-948.0
296.0,31.0,55.0,-111.0,4000.0,-1253.0,4000.0,-1061.0
334.0,4.0,81.0,116.0,4000.0,-1140.0,4000.0,-1126.0
322.0,19.0,113.0,94.0,4000.0,-1097.0,4000.0,-1213.0
351.0,-6.0,95.0,87.0,3527.0,-1237.0,4000.0,-1265.0
358.0,-21.0,34.0,129.0,2569.0,-1356.0,4000.0,-1271.0
342.0,-6.0,-80.0,69.0,-28.0,-945.0,4000.0,-1298.0
358.0,-5.0,-464.0,103.0,-1442.0,-110.0,4000.0,-1213.0
130.0,-11.0,-727.0,77.0,-2043.0,725.0,4000.0,-1188.0
-675.0,-32.0,-263.0,56.0,-3517.0,1657.0,4000.0,-1127.0
-1170.0,-33.0,89.0,104.0,-3929.0,2759.0,4000.0,-1122.0
-482.0,-10.0,212.0,81.0,-3367.0,3398.0,4000.0,-1061.0
487.0,6.0,263.0,96.0,-3018.0,3875.0,3494.0,-993.0
1254.0,-27.0,-78.0,92.0,-4000.0,4000.0,909.0,-953.0
1791.0,-19.0,-89.0,118.0,-4000.0,4000.0,-1227.0,-909.0
1476.0,-12.0,-11.0,67.0,-4000.0,4000.0,-3126.0,-895.0
820.0,-7.0,-251.0,-27.0,-4000.0,4000.0,-4000.0,-875.0
241.0,-26.0,-472.0,-57.0,-4000.0,4000.0,-4000.0,-875.0
-250.0,-59.0,-585.0,-40.0,-4000.0,4000.0,-4000.0,-804.0
-117.0,-31.0,-280.0,0.0,-4000.0,4000.0,-4000.0,-744.0
-440.0,3.0,337.0,-7.0,-4000.0,4000.0,-4000.0,-614.0
-1214.0,22.0,166.0,-17.0,-4000.0,4000.0,-4000.0,-352.0
-1481.0,75.0,-108.0,16.0,-3964.0,3914.0,-4000.0,-35.0
-1162.0,132.0,243.0,2.0,-3663.0,3787.0,-4000.0,409.0
-757.0,128.0,447.0,-48.0,-3817.0,3658.0,-4000.0,935.0
-784.0,90.0,-178.0,-36.0,-3521.0,3491.0,-4000.0,1454.0
-779.0,34.0,-841.0,-20.0,-3132.0,2840.0,-4000.0,1960.0
-685.0,-17.0,-776.0,-25.0,-2537.0,2164.0,-4000.0,2442.0
-550.0,-13.0,-1618.0,-128.0,-2044.0,2124.0,-4000.0,2835.0
-424.0,3.0,-2627.0,-227.0,-1768.0,2289.0,-4000.0,3120.0
-206.0,38.0,-633.0,-284.0,-1333.0,2060.0,-4000.0,3340.0
-95.0,64.0,2876.0,-393.0,-299.0,1929.0,-4000.0,3469.0
39.0,11.0,4000.0,-446.0,1666.0,1799.0,-4000.0,3535.0
118.0,-15.0,4000.0,-328.0,3859.0,1592.0,-4000.0,3656.0
-53.0,-23.0,2975.0,-212.0,4000.0,1325.0,-4000.0,3788.0
-233.0,-10.0,1509.0,-63.0,4000.0,1799.0,-4000.0,3910.0
-154.0,-7.0,646.0,95.0,4000.0,2243.0,-4000.0,3910.0
68.0,-1.0,-442.0,139.0,4000.0,2164.0,-4000.0,3910.0
108.0,4.0,-957.0,158.0,4000.0,2759.0,-4000.0,3910.0
154.0,-22.0,-1302.0,217.0,4000.0,2515.0,-4000.0,3943.0
155.0,-16.0,-1288.0,327.0,4000.0,1901.0,-3065.0,4000.0
165.0,15.0,-1297.0,424.0,3102.0,1657.0,-1699.0,4000.0
102.0,34.0,-1101.0,459.0,3855.0,1118.0,-1718.0,4000.0
79.0,65.0,-645.0,361.0,3102.0,725.0,-1571.0,4000.0
97.0,98.0,-651.0,221.0,-4000.0,667.0,-1246.0,4000.0
48.0,53.0,-932.0,150.0,-4000.0,628.0,-1201.0,4000.0
16.0,29.0,-746.0,75.0,-4000.0,506.0,-247.0,4000.0
-71.0,20.0,-153.0,37.0,-4000.0,693.0,1135.0,4000.0
-150.0,-36.0,13.0,102.0,-4000.0,874.0,2442.0,4000.0
-178.0,-53.0,39.0,163.0,-4000.0,725.0,3086.0,4000.0
-98.0,-68.0,-82.0,142.0,-2421.0,411.0,2826.0,4000.0
-85.0,-47.0,-90.0,-17.0,-724.0,-90.0,3128.0,3784.0
-72.0,14.0,-128.0,-195.0,-460.0,-318.0,3477.0,3390.0
-26.0,51.0,-132.0,-297.0,-1052.0,-531.0,3669.0,2689.0
-27.0,49.0,-203.0,-332.0,-2338.0,-650.0,4000.0,1964.0
-41.0,31.0,-1016.0,-361.0,-4000.0,-537.0,4000.0,1307.0
-39.0,-19.0,-2899.0,-397.0,-4000.0,-398.0,4000.0,243.0
-11.0,-21.0,-3689.0,-306.0,-4000.0,-316.0,3819.0,-797.0
-16.0,60.0,-3992.0,-260.0,-4000.0,-327.0,3746.0,-1859.0
17.0,24.0,-3795.0,-227.0,-4000.0,-375.0,3708.0,-2849.0
-27.0,-30.0,263.0,-180.0,-4000.0,-333.0,3542.0,-3333.0
-53.0,-40.0,793.0,-141.0,-4000.0,-182.0,3917.0,-3840.0
-73.0,-108.0,533.0,-93.0,-4000.0,-149.0,4000.0,-4000.0
-74.0,-139.0,3043.0,-71.0,-2016.0,-111.0,4000.0,-4000.0
-56.0,-122.0,4000.0,-47.0,1995.0,-68.0,3854.0,-4000.0
-62.0,-176.0,4000.0,-61.0,4000.0,-58.0,3950.0,-4000.0
-32.0,-183.0,4000.0,-57.0,4000.0,-20.0,4000.0,-4000.0
-61.0,-144.0,3756.0,-33.0,4000.0,-49.0,3790.0,-4000.0
-60.0,-131.0,2345.0,25.0,4000.0,-33.0,3530.0,-4000.0
-73.0,-44.0,1106.0,32.0,4000.0,-8.0,3542.0,-4000.0
-98.0,-32.0,345.0,105.0,4000.0,-56.0,3333.0,-4000.0
-70.0,-38.0,-328.0,142.0,4000.0,-102.0,2814.0,-4000.0
-24.0,-4.0,-768.0,103.0,4000.0,-95.0,2696.0,-4000.0
-13.0,7.0,-2094.0,18.0,4000.0,-94.0,2449.0,-4000.0
-4.0,25.0,-3846.0,62.0,4000.0,-76.0,2291.0,-4000.0
77.0,-4.0,-4000.0,255.0,4000.0,-109.0,2125.0,-4000.0
119.0,-16.0,-2578.0,276.0,2695.0,-237.0,1931.0,-4000.0
134.0,-32.0,646.0,194.0,-812.0,-279.0,1801.0,-4000.0
126.0,-42.0,1387.0,22.0,-593.0,-362.0,1548.0,-3694.0
147.0,26.0,719.0,2.0,-105.0,-471.0,1379.0,-1384.0
177.0,92.0,-761.0,87.0,285.0,-471.0,1180.0,941.0
131.0,95.0,-320.0,-15.0,346.0,-493.0,1019.0,4000.0
99.0,122.0,-1153.0,-53.0,-1129.0,-446.0,877.0,4000.0
46.0,93.0,-3795.0,-75.0,-2277.0,-471.0,779.0,4000.0
56.0,85.0,-3689.0,-200.0,-4000.0,-555.0,669.0,4000.0
52.0,131.0,-2721.0,-267.0,-4000.0,-555.0,577.0,4000.0
20.0,138.0,-1948.0,-352.0,-4000.0,-591.0,533.0,4000.0
14.0,152.0,2548.0,-359.0,-4000.0,-485.0,455.0,4000.0
-23.0,120.0,4000.0,-236.0,-4000.0,-405.0,404.0,4000.0
-82.0,70.0,567.0,-172.0,-4000.0,-436.0,349.0,4000.0
-138.0,15.0,-1192.0,-69.0,-4000.0,-485.0,290.0,4000.0
-146.0,-20.0,1197.0,155.0,-4000.0,-489.0,226.0,4000.0
-58.0,-23.0,2030.0,257.0,-4000.0,-434.0,202.0,4000.0
171.0,38.0,1965.0,264.0,-4000.0,-459.0,151.0,4000.0
264.0,105.0,3845.0,276.0,-4000.0,-459.0,120.0,4000.0
328.0,64.0,3499.0,199.0,-4000.0,-489.0,52.0,4000.0
733.0,1.0,2978.0,116.0,-4000.0,-546.0,-10.0,4000.0
673.0,-25.0,572.0,96.0,-3445.0,-591.0,-30.0,4000.0
204.0,-24.0,-617.0,91.0,-2777.0,-620.0,-79.0,4000.0
-14.0,30.0,467.0,107.0,-2887.0,-580.0,-88.0,4000.0
-301.0,77.0,-741.0,234.0,-3905.0,-482.0,-130.0,4000.0
-641.0,29.0,-1476.0,329.0,-4000.0,-459.0,-167.0,4000.0
-909.0,10.0,-1229.0,311.0,-4000.0,-476.0,-155.0,4000.0
-441.0,40.0,-393.0,149.0,-4000.0,-511.0,-192.0,4000.0
306.0,-16.0,-645.0,-35.0,-4000.0,-680.0,-247.0,4000.0
680.0,-72.0,-613.0,-136.0,-3262.0,-796.0,-260.0,2029.0
654.0,-41.0,-369.0,-409.0,-2741.0,-810.0,-284.0,-113.0
266.0,15.0,-1134.0,-560.0,-2318.0,-867.0,-290.0,-2100.0
-88.0,26.0,-1520.0,-595.0,-1731.0,-907.0,-287.0,-3581.0
-443.0,-8.0,-882.0,-455.0,-2296.0,-862.0,-277.0,-4000.0
-457.0,-49.0,174.0,-365.0,-2595.0,-802.0,-247.0,-4000.0
-550.0,-88.0,-98.0,-397.0,-2010.0,-745.0,-219.0,-4000.0
-645.0,-55.0,-2008.0,-161.0,-1442.0,-685.0,-228.0,-4000.0
-630.0,-53.0,-1878.0,-56.0,-1117.0,-680.0,-275.0,-4000.0
-589.0,-115.0,454.0,-5.0,-1573.0,-698.0,-249.0,-4000.0
-473.0,-114.0,1119.0,65.0,-1609.0,-702.0,-262.0,-4000.0
-341.0,-63.0,2347.0,109.0,-1253.0,-638.0,-279.0,-4000.0
-168.0,-13.0,2330.0,71.0,-846.0,-598.0,-298.0,-4000.0
-107.0,67.0,3185.0,-12.0,-291.0,-499.0,-308.0,-4000.0
38.0,111.0,4000.0,-45.0,69.0,-449.0,-269.0,-4000.0
177.0,95.0,4000.0,-79.0,31.0,-463.0,-261.0,-4000.0
263.0,91.0,3369.0,-69.0,169.0,-379.0,-219.0,-4000.0
125.0,57.0,979.0,-42.0,570.0,-362.0,-224.0,-4000.0
110.0,64.0,-1881.0,13.0,896.0,-325.0,-238.0,-4000.0
93.0,67.0,-4000.0,-8.0,1509.0,-289.0,-207.0,-4000.0
-98.0,60.0,-4000.0,-55.0,2189.0,-240.0,-208.0,-3244.0
-108.0,40.0,-4000.0,-2.0,3599.0,-228.0,-200.0,-2741.0
-100.0,-8.0,-4000.0,77.0,4000.0,-204.0,-176.0,-2491.0
-79.0,-67.0,-4000.0,152.0,3729.0,-155.0,-159.0,-1957.0
-62.0,-134.0,-1765.0,286.0,4000.0,-65.0,-159.0,-1607.0
40.0,-98.0,1479.0,382.0,4000.0,95.0,-139.0,-1103.0
107.0,-35.0,2276.0,430.0,3747.0,126.0,-123.0,-713.0
107.0,-6.0,1375.0,377.0,4000.0,164.0,-102.0,-357.0
86.0,15.0,1387.0,178.0,4000.0,180.0,-98.0,-135.0
86.0,-11.0,-2399.0,-40.0,2618.0,262.0,-104.0,148.0
80.0,-96.0,-4000.0,25.0,2813.0,347.0,-77.0,20.0
71.0,-27.0,-4000.0,272.0,4000.0,347.0,-71.0,-1070.0
134.0,215.0,1375.0,182.0,3989.0,376.0,-69.0,-2244.0
118.0,400.0,4000.0,44.0,3410.0,368.0,-62.0,-3192.0
139.0,384.0,4000.0,-14.0,3150.0,415.0,-56.0,-3809.0
155.0,233.0,4000.0,-167.0,2177.0,468.0,-61.0,-3889.0
192.0,135.0,4000.0,-137.0,874.0,485.0,-45.0,-2670.0
228.0,47.0,2730.0,52.0,-348.0,504.0,-51.0,-449.0
190.0,-94.0,1367.0,53.0,-1292.0,486.0,-80.0,1085.0
163.0,-174.0,-25.0,69.0,-1333.0,449.0,-56.0,1633.0
199.0,-206.0,-585.0,187.0,-1333.0,347.0,-33.0,1769.0
315.0,-301.0,92.0,133.0,-1685.0,303.0,-36.0,1411.0
222.0,-371.0,-3795.0,-42.0,-2029.0,236.0,-89.0,634.0
19.0,-437.0,-4000.0,-186.0,-1729.0,172.0,-76.0,100.0
-71.0,-310.0,-3290.0,-151.0,-1439.0,203.0,-58.0,196.0
-157.0,-122.0,1322.0,-29.0,-2029.0,227.0,-72.0,1085.0
-155.0,-26.0,3251.0,39.0,-2115.0,213.0,-32.0,1964.0
-148.0,34.0,3397.0,-44.0,-2318.0,185.0,-4.0,2172.0
-67.0,12.0,3575.0,-129.0,-2676.0,136.0,-16.0,2479.0
77.0,157.0,3694.0,-143.0,-2887.0,123.0,-14.0,2754.0
78.0,201.0,3564.0,-237.0,-2483.0,143.0,15.0,2479.0
107.0,173.0,1310.0,-290.0,-1849.0,114.0,29.0,2419.0
175.0,167.0,1314.0,-198.0,-1768.0,105.0,22.0,2770.0
106.0,84.0,433.0,-37.0,-1123.0,96.0,38.0,2819.0
86.0,44.0,190.0,37.0,-728.0,50.0,17.0,2705.0
3.0,12.0,-210.0,91.0,-812.0,4.0,-32.0,3014.0
-176.0,-14.0,-616.0,116.0,-547.0,-4.0,-23.0,3196.0
-357.0,-52.0,-1166.0,105.0,-180.0,-27.0,-9.0,3487.0
-441.0,-98.0,-4000.0,215.0,47.0,-20.0,-5.0,3976.0
-274.0,-118.0,-4000.0,276.0,411.0,9.0,-25.0,3788.0
-4.0,-137.0,-4000.0,81.0,866.0,42.0,-54.0,3524.0
97.0,-109.0,-2951.0,-175.0,1323.0,48.0,-79.0,3422.0
-5.0,1.0,79.0,-267.0,2441.0,25.0,-94.0,3209.0
178.0,56.0,858.0,-362.0,2947.0,33.0,-119.0,2901.0
214.0,60.0,955.0,-357.0,1509.0,68.0,-133.0,2636.0
277.0,98.0,2211.0,-221.0,648.0,115.0,-93.0,2544.0
359.0,197.0,2347.0,-137.0,603.0,203.0,-104.0,2435.0
24.0,241.0,1282.0,-74.0,-903.0,235.0,-129.0,2290.0
-129.0,235.0,-340.0,-33.0,438.0,201.0,-161.0,2314.0
-378.0,229.0,-1992.0,-68.0,3215.0,100.0,-224.0,2367.0
-483.0,124.0,-1944.0,-82.0,1272.0,76.0,-258.0,1895.0
-431.0,31.0,-1214.0,170.0,-942.0,185.0,-279.0,1286.0
-350.0,-28.0,-246.0,458.0,162.0,241.0,-268.0,941.0
-250.0,-89.0,2941.0,375.0,1904.0,303.0,-255.0,1026.0
-162.0,-174.0,4000.0,12.0,2374.0,176.0,-325.0,1334.0
15.0,-217.0,4000.0,-112.0,1930.0,33.0,-331.0,1306.0
42.0,-171.0,3564.0,25.0,635.0,146.0,-286.0,1026.0
47.0,-127.0,1282.0,72.0,-15.0,166.0,-245.0,686.0
-45.0,-48.0,2326.0,32.0,-456.0,50.0,-149.0,1142.0
-120.0,-86.0,2266.0,-175.0,182.0,18.0,-74.0,1663.0
-96.0,-113.0,-3884.0,-312.0,532.0,-9.0,11.0,1085.0
-58.0,-3.0,-4000.0,-198.0,147.0,-72.0,154.0,609.0
27.0,57.0,-4000.0,-95.0,1018.0,-129.0,267.0,210.0
142.0,66.0,-4000.0,101.0,314.0,-190.0,349.0,-320.0
150.0,53.0,-4000.0,154.0,371.0,-199.0,433.0,-1143.0
69.0,-4.0,-4000.0,81.0,328.0,-211.0,521.0,-2086.0
4.0,-23.0,-3471.0,-26.0,112.0,-185.0,570.0,-2440.0
-43.0,16.0,-2276.0,-227.0,37.0,-219.0,587.0,-2723.0
65.0,30.0,546.0,-139.0,15.0,-224.0,628.0,-3007.0
277.0,3.0,3714.0,142.0,125.0,-190.0,673.0,-2937.0
302.0,-76.0,4000.0,351.0,-150.0,-207.0,637.0,-2784.0
168.0,-48.0,4000.0,356.0,335.0,-184.0,597.0,-2797.0
118.0,58.0,4000.0,183.0,253.0,-221.0,539.0,-2722.0
-124.0,21.0,3782.0,34.0,583.0,-210.0,416.0,-2983.0
-245.0,40.0,793.0,-8.0,876.0,-186.0,359.0,-3244.0
-254.0,65.0,-1927.0,-67.0,1026.0,-182.0,303.0,-3448.0
-200.0,46.0,-1465.0,-147.0,1063.0,-133.0,238.0,-3397.0
42.0,87.0,-996.0,-263.0,1018.0,-124.0,238.0,-3007.0
322.0,102.0,-560.0,-345.0,602.0,7.0,191.0,-2747.0
603.0,129.0,606.0,-370.0,190.0,84.0,138.0,-2741.0
524.0,164.0,1479.0,-213.0,618.0,69.0,89.0,-3198.0
239.0,147.0,1822.0,7.0,701.0,123.0,-3.0,-3386.0
-155.0,44.0,533.0,87.0,831.0,105.0,-56.0,-2759.0
-323.0,20.0,-439.0,215.0,302.0,118.0,-19.0,-2050.0
-498.0,33.0,95.0,157.0,141.0,220.0,-12.0,-1504.0
-518.0,55.0,1900.0,124.0,1018.0,273.0,-27.0,-1111.0
-338.0,111.0,2989.0,92.0,2060.0,343.0,-123.0,-1322.0
-437.0,108.0,4000.0,-40.0,2177.0,389.0,-240.0,-1801.0
-571.0,125.0,4000.0,-9.0,2943.0,348.0,-277.0,-1339.0
-934.0,131.0,2551.0,-39.0,3281.0,374.0,-349.0,-163.0
-859.0,118.0,1871.0,-140.0,2254.0,406.0,-355.0,569.0
-227.0,66.0,872.0,-322.0,1775.0,358.0,-325.0,601.0
69.0,62.0,-198.0,-332.0,302.0,376.0,-363.0,131.0
314.0,67.0,-1805.0,-251.0,1063.0,386.0,-424.0,134.0
391.0,-7.0,-2717.0,-271.0,1855.0,303.0,-406.0,499.0
214.0,-55.0,-2964.0,-106.0,1136.0,213.0,-378.0,184.0
212.0,-153.0,-2964.0,-38.0,92.0,78.0,-342.0,-562.0
100.0,-215.0,-1297.0,72.0,-1528.0,74.0,-283.0,-1375.0
-34.0,-305.0,-26.0,103.0,-2222.0,42.0,-262.0,-1429.0
28.0,-334.0,-943.0,-46.0,-2312.0,25.0,-245.0,-1001.0
169.0,-234.0,-385.0,34.0,-616.0,110.0,-238.0,-990.0
406.0,-181.0,-557.0,185.0,373.0,99.0,-251.0,-824.0
719.0,-122.0,-1732.0,244.0,385.0,64.0,-208.0,-398.0
627.0,3.0,-1530.0,134.0,-229.0,-10.0,-116.0,-590.0
340.0,-7.0,-2704.0,-39.0,-2018.0,-44.0,-84.0,-856.0
204.0,-43.0,-2603.0,-181.0,-1504.0,-159.0,-72.0,-528.0
8.0,-9.0,-2480.0,-133.0,-1333.0,-149.0,-88.0,-627.0
-95.0,-24.0,-1881.0,-29.0,-1833.0,-146.0,-116.0,-549.0
-190.0,-12.0,-1279.0,-48.0,-1124.0,-262.0,-98.0,-109.0
-245.0,-24.0,-1042.0,-48.0,-730.0,-326.0,-108.0,30.0
-228.0,-22.0,-651.0,-6.0,-593.0,-474.0,-1.0,53.0
-234.0,-12.0,158.0,16.0,-1272.0,-555.0,58.0,-232.0
-220.0,20.0,1163.0,-21.0,-1097.0,-623.0,-3.0,861.0
-154.0,50.0,931.0,-29.0,-64.0,-721.0,-48.0,1846.0
-68.0,54.0,1127.0,-159.0,944.0,-750.0,-129.0,564.0
-51.0,64.0,757.0,-301.0,2165.0,-550.0,-64.0,-236.0
100.0,40.0,1029.0,-277.0,1920.0,-247.0,53.0,332.0
570.0,31.0,1662.0,-148.0,1227.0,-3.0,90.0,294.0
895.0,19.0,1888.0,54.0,534.0,156.0,109.0,-72.0
406.0,-14.0,1757.0,76.0,532.0,166.0,145.0,564.0
-238.0,9.0,1627.0,111.0,4000.0,-129.0,120.0,896.0
-416.0,45.0,1939.0,236.0,4000.0,-474.0,152.0,483.0
-453.0,60.0,2421.0,280.0,4000.0,-350.0,256.0,296.0
-341.0,48.0,2356.0,257.0,4000.0,-185.0,214.0,-30.0
-260.0,38.0,1888.0,65.0,4000.0,-151.0,160.0,1399.0
-206.0,74.0,2551.0,-214.0,4000.0,-182.0,74.0,2029.0
-148.0,67.0,2083.0,-263.0,4000.0,-175.0,41.0,947.0
-124.0,71.0,268.0,-282.0,4000.0,147.0,61.0,1281.0
-10.0,70.0,-1041.0,-114.0,4000.0,479.0,43.0,1281.0
243.0,30.0,-1602.0,489.0,4000.0,752.0,72.0,1792.0
399.0,14.0,-1468.0,850.0,4000.0,1059.0,107.0,2159.0
473.0,-14.0,-1041.0,764.0,4000.0,1273.0,188.0,2377.0
473.0,1.0,-811.0,642.0,4000.0,1279.0,238.0,3458.0
186.0,85.0,-490.0,663.0,2425.0,1003.0,368.0,4000.0
4.0,128.0,-711.0,842.0,1075.0,822.0,459.0,4000.0
-253.0,114.0,-847.0,935.0,-162.0,888.0,413.0,4000.0
-320.0,93.0,-255.0,377.0,-1194.0,997.0,506.0,4000.0
-450.0,77.0,-297.0,-584.0,-2016.0,1071.0,627.0,4000.0
-740.0,41.0,-369.0,-1092.0,-2289.0,882.0,593.0,3719.0
-375.0,41.0,73.0,-1146.0,-2611.0,701.0,364.0,3340.0
7.0,12.0,495.0,-1480.0,-3669.0,557.0,243.0,3275.0
190.0,-44.0,205.0,-1767.0,-4000.0,402.0,217.0,2948.0
464.0,-43.0,-320.0,-1341.0,-4000.0,105.0,50.0,3000.0
412.0,-106.0,-666.0,-1030.0,-4000.0,-373.0,-188.0,3600.0
188.0,-53.0,-1081.0,-1081.0,-4000.0,-576.0,-221.0,4000.0
92.0,-31.0,-1073.0,-979.0,-4000.0,-613.0,-211.0,3275.0
139.0,-43.0,-814.0,-389.0,-4000.0,-613.0,-340.0,731.0
169.0,-5.0,-320.0,634.0,-4000.0,-442.0,-317.0,751.0
220.0,-14.0,219.0,980.0,-4000.0,-385.0,-373.0,2640.0
277.0,-23.0,244.0,793.0,-4000.0,-511.0,-327.0,2948.0
233.0,-11.0,-54.0,642.0,-4000.0,-716.0,-198.0,1859.0
235.0,52.0,-32.0,971.0,-4000.0,-761.0,-261.0,1176.0
451.0,40.0,231.0,1363.0,-4000.0,-306.0,-327.0,-536.0
574.0,52.0,676.0,1053.0,-4000.0,-86.0,-363.0,-2230.0
430.0,45.0,1039.0,850.0,-4000.0,-428.0,-316.0,-2866.0
212.0,2.0,728.0,649.0,-4000.0,-1290.0,-233.0,-1904.0
-541.0,-21.0,149.0,298.0,-4000.0,-2246.0,-200.0,-358.0
-1105.0,-22.0,374.0,-102.0,-4000.0,-2712.0,-306.0,-627.0
-1064.0,-57.0,2352.0,-359.0,-3054.0,-2867.0,-472.0,-753.0
-765.0,-171.0,3637.0,207.0,-3575.0,-2803.0,-305.0,286.0
-565.0,-228.0,2460.0,1607.0,-4000.0,-2431.0,-65.0,462.0
-317.0,-209.0,1835.0,2608.0,-4000.0,-1883.0,-221.0,-124.0
163.0,-104.0,1444.0,2216.0,-4000.0,-1509.0,-224.0,-788.0
979.0,-65.0,642.0,2151.0,-4000.0,-1172.0,-69.0,-1970.0
1237.0,-42.0,-186.0,2258.0,-4000.0,-867.0,120.0,-2344.0
340.0,36.0,-2241.0,590.0,-4000.0,-745.0,477.0,-2051.0
-307.0,57.0,-3420.0,-1589.0,-4000.0,-672.0,600.0,-1894.0
-1365.0,43.0,-3539.0,-3103.0,-4000.0,-453.0,642.0,-1904.0
-2283.0,33.0,-3537.0,-4000.0,-4000.0,-146.0,521.0,-2163.0
-1148.0,20.0,-4000.0,-4000.0,-4000.0,504.0,278.0,-2629.0
172.0,-7.0,-4000.0,-4000.0,-3982.0,2031.0,217.0,-3191.0
456.0,-16.0,-4000.0,-4000.0,-3001.0,4000.0,196.0,-3349.0
595.0,-10.0,-2889.0,-2647.0,-2800.0,4000.0,131.0,-3451.0
160.0,-30.0,-2448.0,-1674.0,-2729.0,4000.0,76.0,-3085.0
-98.0,4.0,-1419.0,-301.0,-2664.0,4000.0,116.0,-2360.0
-214.0,38.0,-32.0,1144.0,-1782.0,4000.0,107.0,-1959.0
-201.0,54.0,508.0,1827.0,-921.0,1098.0,172.0,-1826.0
0.0,60.0,157.0,2475.0,-812.0,-2713.0,171.0,-1644.0
-10.0,21.0,175.0,3243.0,-1318.0,-4000.0,85.0,-1826.0
151.0,30.0,902.0,3877.0,-1436.0,-4000.0,101.0,-1788.0
137.0,46.0,1387.0,3454.0,-1142.0,-4000.0,84.0,-947.0
214.0,53.0,1574.0,3064.0,-1064.0,-4000.0,116.0,-818.0
408.0,52.0,1877.0,2086.0,-621.0,-3104.0,41.0,-1310.0
564.0,30.0,2030.0,704.0,-1022.0,-1570.0,-101.0,-2128.0
399.0,11.0,1822.0,-446.0,-1102.0,-101.0,-101.0,-2584.0
202.0,-12.0,2616.0,-2340.0,-791.0,944.0,-25.0,-1191.0
143.0,-37.0,4000.0,-3803.0,-647.0,1929.0,-6.0,33.0
33.0,-27.0,4000.0,-4000.0,-295.0,2289.0,-5.0,831.0
68.0,-2.0,3633.0,-4000.0,113.0,2450.0,40.0,1176.0
26.0,16.0,3821.0,-4000.0,1340.0,2706.0,54.0,569.0
-17.0,27.0,4000.0,-3640.0,2485.0,2747.0,123.0,-44.0
-125.0,-21.0,433.0,-1231.0,3072.0,2694.0,120.0,-1180.0
-178.0,-19.0,-1617.0,617.0,3020.0,2442.0,123.0,-1697.0
-36.0,15.0,-3080.0,1339.0,2646.0,2228.0,329.0,-1860.0
70.0,27.0,-3691.0,1606.0,3037.0,1991.0,498.0,-2812.0
132.0,52.0,-3949.0,1209.0,3679.0,1734.0,449.0,-3569.0
253.0,30.0,-3615.0,1175.0,3410.0,1590.0,274.0,-3667.0
306.0,38.0,-3242.0,1110.0,3020.0,1269.0,193.0,-2876.0
192.0,30.0,-3213.0,1489.0,3606.0,953.0,217.0,-2122.0
23.0,29.0,-3355.0,1566.0,4000.0,669.0,175.0,-1392.0
-122.0,29.0,-2888.0,1302.0,4000.0,265.0,32.0,-738.0
-159.0,23.0,-1362.0,1588.0,4000.0,136.0,368.0,-647.0
-191.0,45.0,-438.0,1761.0,4000.0,-175.0,812.0,84.0
-195.0,52.0,866.0,2540.0,4000.0,-532.0,838.0,871.0
-143.0,36.0,1218.0,3324.0,4000.0,-781.0,661.0,1216.0
-188.0,9.0,1249.0,4000.0,4000.0,-1050.0,480.0,1045.0
-256.0,-11.0,1387.0,4000.0,4000.0,-1196.0,204.0,499.0
-250.0,-22.0,1306.0,4000.0,4000.0,-1396.0,-163.0,569.0
-192.0,-35.0,1432.0,3358.0,4000.0,-1526.0,-258.0,1085.0
-74.0,-31.0,1432.0,2074.0,4000.0,-1672.0,-474.0,1085.0
92.0,-14.0,996.0,75.0,4000.0,-1617.0,-592.0,556.0
114.0,-21.0,130.0,-1154.0,3982.0,-1715.0,-745.0,186.0
52.0,-22.0,-515.0,-2837.0,4000.0,-1831.0,-1197.0,-419.0
16.0,-35.0,-170.0,-3854.0,4000.0,-1949.0,-1199.0,-883.0
7.0,-13.0,1257.0,-4000.0,4000.0,-1883.0,-1108.0,-791.0
-37.0,7.0,2027.0,-4000.0,4000.0,-1766.0,-976.0,-580.0
-3.0,1.0,1674.0,-4000.0,4000.0,-1912.0,-473.0,-488.0
56.0,12.0,-847.0,-3091.0,4000.0,-2156.0,-373.0,-748.0
21.0,13.0,-2470.0,-1411.0,3788.0,-2510.0,-933.0,-628.0
-102.0,28.0,-52.0,155.0,1248.0,-2532.0,-1358.0,499.0
-406.0,7.0,2913.0,532.0,-2092.0,-2271.0,-1914.0,2159.0
-493.0,-3.0,4000.0,-143.0,-4000.0,-1570.0,-2610.0,3812.0
86.0,-30.0,3120.0,-462.0,-4000.0,-816.0,-3053.0,4000.0
656.0,-26.0,1614.0,-979.0,-4000.0,-615.0,-3147.0,4000.0
768.0,1.0,1184.0,-1674.0,-4000.0,-1062.0,-2251.0,4000.0
701.0,-13.0,-1678.0,-586.0,-4000.0,-1604.0,-1832.0,4000.0
321.0,3.0,-3717.0,447.0,-4000.0,-1699.0,-2120.0,4000.0
-28.0,19.0,-3926.0,590.0,-4000.0,-1682.0,-1848.0,4000.0
-176.0,13.0,-2138.0,817.0,-4000.0,-1506.0,-1819.0,4000.0
-260.0,5.0,-681.0,814.0,-4000.0,-1248.0,-1735.0,4000.0
-218.0,-14.0,299.0,799.0,-2870.0,-663.0,-1441.0,3673.0
-207.0,-38.0,321.0,959.0,-1398.0,210.0,-1317.0,2819.0
-168.0,-71.0,454.0,1184.0,-1056.0,725.0,-1006.0,1986.0
-149.0,-77.0,133.0,1305.0,-386.0,1083.0,-1173.0,1924.0
-151.0,-37.0,-484.0,1216.0,-143.0,1704.0,-1822.0,1142.0
-120.0,-27.0,-1004.0,1536.0,1134.0,2447.0,-2180.0,195.0
-67.0,-43.0,-2704.0,1210.0,3215.0,2953.0,-1637.0,-443.0
-85.0,-3.0,-4000.0,161.0,4000.0,3083.0,-750.0,-1432.0
-101.0,36.0,-4000.0,-417.0,4000.0,3296.0,-876.0,-1450.0
-83.0,62.0,-1028.0,-776.0,4000.0,3463.0,96.0,-1200.0
-54.0,67.0,1423.0,-1049.0,4000.0,3398.0,1528.0,-1590.0
20.0,49.0,2017.0,-1044.0,4000.0,3005.0,604.0,-1891.0
30.0,65.0,2356.0,-810.0,4000.0,2485.0,-408.0,-2584.0
39.0,46.0,2210.0,-479.0,4000.0,1969.0,-28.0,-2983.0
52.0,30.0,-1720.0,-195.0,4000.0,1601.0,995.0,-2828.0
47.0,41.0,-4000.0,-258.0,4000.0,1864.0,1605.0,-3256.0
-4.0,41.0,-4000.0,-513.0,4000.0,2359.0,2191.0,-3387.0
-60.0,26.0,-2511.0,-507.0,4000.0,2175.0,2761.0,-3734.0
2.0,27.0,4000.0,-462.0,4000.0,1657.0,2425.0,-4000.0
64.0,41.0,4000.0,-237.0,4000.0,1799.0,2503.0,-4000.0
21.0,17.0,4000.0,-59.0,4000.0,1907.0,2631.0,-4000.0
-60.0,-19.0,4000.0,-456.0,2356.0,1787.0,2232.0,-4000.0
-96.0,9.0,4000.0,-684.0,758.0,1994.0,2579.0,-4000.0
6.0,24.0,-403.0,-782.0,1193.0,2124.0,3202.0,-4000.0
35.0,-21.0,-4000.0,-822.0,1466.0,2421.0,3477.0,-4000.0
-14.0,-31.0,-4000.0,-479.0,1322.0,2617.0,3903.0,-4000.0
-83.0,-56.0,-4000.0,-108.0,468.0,2942.0,3748.0,-2735.0
-125.0,-52.0,-2306.0,236.0,-621.0,2629.0,3282.0,-1743.0
9.0,-55.0,-336.0,446.0,-1319.0,1443.0,3216.0,-1709.0
80.0,-42.0,-716.0,453.0,-2010.0,725.0,3429.0,-866.0
86.0,-2.0,-688.0,352.0,-3582.0,115.0,3400.0,-325.0
14.0,-14.0,-348.0,158.0,-4000.0,-216.0,3216.0,419.0
-26.0,21.0,-1689.0,181.0,-4000.0,-580.0,3216.0,882.0
8.0,27.0,-2027.0,245.0,-4000.0,-940.0,2749.0,1000.0
0.0,52.0,-1395.0,244.0,-4000.0,-1005.0,2232.0,1728.0
39.0,74.0,1609.0,819.0,-4000.0,-685.0,2552.0,1533.0
15.0,26.0,4000.0,1618.0,-4000.0,19.0,3168.0,1512.0
-109.0,-44.0,4000.0,2216.0,-4000.0,432.0,3298.0,1663.0
-160.0,-103.0,3432.0,2400.0,-4000.0,426.0,2890.0,1793.0
-74.0,-144.0,1368.0,2528.0,-4000.0,498.0,1984.0,2172.0
-67.0,-202.0,1104.0,3194.0,-4000.0,1140.0,1670.0,2054.0
-79.0,-135.0,284.0,2452.0,-4000.0,1579.0,1602.0,1836.0
-64.0,-79.0,-717.0,-211.0,-4000.0,1010.0,1019.0,1914.0
-50.0,-65.0,-1881.0,-1952.0,-4000.0,167.0,498.0,1818.0
-22.0,-13.0,-2373.0,-3228.0,-4000.0,-745.0,368.0,1150.0
-18.0,9.0,-2346.0,-4000.0,-4000.0,-1316.0,478.0,896.0
-18.0,21.0,-2009.0,-4000.0,-3995.0,-1121.0,474.0,967.0
-48.0,20.0,-1917.0,-3697.0,-3132.0,-1140.0,110.0,1057.0
9.0,34.0,-2038.0,-2047.0,-2843.0,-926.0,-27.0,1012.0
9.0,70.0,-1492.0,-475.0,-2465.0,-988.0,-1.0,992.0
5.0,67.0,-1543.0,503.0,-1398.0,-1232.0,-137.0,1286.0
22.0,51.0,-2479.0,1216.0,-659.0,-1245.0,-33.0,1595.0
4.0,50.0,-2123.0,1125.0,-712.0,-1396.0,-359.0,1762.0
4.0,52.0,-419.0,699.0,-1292.0,-1251.0,-485.0,1793.0
-27.0,58.0,-77.0,645.0,-1324.0,-1526.0,-697.0,1989.0
-32.0,74.0,244.0,590.0,-1207.0,-1715.0,-962.0,1986.0
-29.0,86.0,-1219.0,699.0,-1077.0,-1623.0,-817.0,1846.0
-34.0,109.0,-3349.0,687.0,-1129.0,-1421.0,-784.0,1728.0
6.0,110.0,-1732.0,711.0,-1385.0,-907.0,-768.0,1704.0
33.0,99.0,638.0,598.0,-1384.0,-582.0,-1051.0,1704.0
43.0,85.0,1794.0,402.0,-1528.0,-630.0,-1332.0,1460.0
67.0,58.0,2347.0,191.0,-2472.0,-972.0,-1572.0,1248.0
71.0,51.0,2551.0,-72.0,-3327.0,-1192.0,-1851.0,955.0
59.0,18.0,2352.0,-276.0,-3868.0,-1265.0,-2464.0,597.0
71.0,-5.0,606.0,-532.0,-4000.0,-1226.0,-2752.0,422.0
73.0,-15.0,-1714.0,-645.0,-4000.0,-945.0,-1943.0,434.0
99.0,-63.0,-2344.0,-770.0,-4000.0,-645.0,-972.0,296.0
110.0,-83.0,-3030.0,-650.0,-4000.0,-621.0,-791.0,-2.0
117.0,-92.0,-3307.0,-433.0,-4000.0,-797.0,-933.0,-122.0
143.0,-104.0,-2847.0,-224.0,-4000.0,-1070.0,-966.0,-124.0
155.0,-72.0,-2397.0,-45.0,-4000.0,-1226.0,-1249.0,-53.0
150.0,-66.0,-1629.0,-83.0,-4000.0,-1106.0,-1468.0,26.0
122.0,-59.0,-1073.0,-198.0,-2660.0,-911.0,-1571.0,220.0
147.0,-70.0,-133.0,-202.0,-1129.0,-641.0,-1781.0,503.0
149.0,-43.0,-841.0,-162.0,209.0,-489.0,-1991.0,707.0
163.0,-6.0,-1427.0,-210.0,1156.0,-476.0,-1832.0,890.0
161.0,-16.0,-596.0,-116.0,1966.0,-221.0,-1397.0,1403.0
180.0,25.0,-1015.0,33.0,2243.0,-476.0,-1382.0,1924.0
202.0,52.0,-716.0,459.0,2190.0,-1127.0,-1374.0,1924.0
163.0,45.0,1306.0,923.0,2451.0,-1375.0,-1291.0,1663.0
147.0,33.0,4000.0,956.0,2556.0,-1599.0,-1189.0,1403.0
139.0,47.0,4000.0,902.0,2683.0,-1317.0,-1095.0,601.0
135.0,58.0,4000.0,956.0,3464.0,-1251.0,-1011.0,-227.0
107.0,78.0,4000.0,956.0,4000.0,-1030.0,-907.0,-818.0
108.0,113.0,4000.0,850.0,4000.0,-790.0,-882.0,-2128.0
89.0,90.0,4000.0,821.0,4000.0,-763.0,-745.0,-3020.0
55.0,95.0,3741.0,655.0,3789.0,-630.0,-672.0,-3020.0
30.0,77.0,2395.0,459.0,3794.0,-1734.0,-615.0,-2488.0
8.0,56.0,931.0,363.0,3863.0,-2338.0,-611.0,-1643.0
-9.0,64.0,-57.0,374.0,4000.0,-1943.0,-575.0,-622.0
-41.0,46.0,-348.0,290.0,3982.0,-1330.0,-521.0,-687.0
-66.0,52.0,-546.0,40.0,3534.0,-797.0,-424.0,-1365.0
-51.0,45.0,-847.0,-143.0,3558.0,-115.0,-262.0,-759.0
-61.0,47.0,-781.0,-296.0,3599.0,348.0,-152.0,-145.0
-82.0,17.0,-499.0,-401.0,3297.0,223.0,81.0,456.0
-96.0,-37.0,-519.0,-527.0,3020.0,480.0,259.0,213.0
-109.0,-59.0,-674.0,-555.0,3006.0,880.0,441.0,-141.0
-99.0,-86.0,-1028.0,-521.0,3232.0,1312.0,637.0,93.0
-154.0,-143.0,-1362.0,-488.0,3593.0,1722.0,746.0,25.0
-208.0,-114.0,-1832.0,-423.0,3916.0,1901.0,746.0,7.0
-172.0,-72.0,-2188.0,-383.0,4000.0,1657.0,954.0,-424.0
-124.0,-59.0,-2175.0,-365.0,4000.0,1409.0,1254.0,-553.0
-148.0,-18.0,-2216.0,-314.0,4000.0,1539.0,1259.0,-594.0
-138.0,-11.0,-2175.0,-232.0,4000.0,1409.0,1280.0,-809.0
-102.0,33.0,-2045.0,-147.0,4000.0,1222.0,1183.0,-818.0
-81.0,70.0,-1944.0,-72.0,4000.0,1136.0,1078.0,-589.0
-12.0,57.0,-1778.0,-15.0,4000.0,858.0,995.0,-297.0
-119.0,34.0,-1557.0,23.0,4000.0,589.0,693.0,-467.0
-288.0,44.0,-1390.0,51.0,4000.0,168.0,441.0,-627.0
-122.0,78.0,-1171.0,60.0,4000.0,-205.0,236.0,-431.0
27.0,63.0,-1036.0,69.0,4000.0,-383.0,-84.0,-234.0
74.0,51.0,-876.0,76.0,4000.0,-685.0,-363.0,-44.0
79.0,25.0,-716.0,61.0,4000.0,-940.0,-515.0,66.0
-75.0,4.0,-580.0,69.0,4000.0,-816.0,-613.0,135.0
-154.0,-1.0,-450.0,94.0,4000.0,-731.0,-613.0,40.0
-245.0,19.0,-363.0,87.0,4000.0,-485.0,-731.0,-781.0
-278.0,55.0,-210.0,51.0,4000.0,82.0,-685.0,-974.0
-303.0,56.0,-102.0,47.0,4000.0,358.0,-548.0,-653.0
-339.0,56.0,19.0,47.0,4000.0,669.0,-774.0,-338.0
-388.0,56.0,91.0,29.0,4000.0,1006.0,-1011.0,187.0
-453.0,45.0,166.0,18.0,4000.0,1248.0,-1181.0,576.0
-319.0,33.0,262.0,51.0,4000.0,1573.0,-1373.0,662.0
-147.0,64.0,371.0,80.0,4000.0,1787.0,-1583.0,230.0
-107.0,102.0,459.0,87.0,4000.0,1864.0,-1755.0,88.0
-152.0,79.0,502.0,133.0,3493.0,1798.0,-1853.0,239.0
-99.0,17.0,606.0,187.0,3363.0,1639.0,-1804.0,660.0
50.0,-20.0,728.0,301.0,3529.0,1397.0,-1397.0,739.0
-261.0,-65.0,764.0,244.0,3660.0,1026.0,-882.0,564.0
-974.0,-86.0,547.0,-3.0,3526.0,636.0,-482.0,548.0
-1105.0,-59.0,381.0,-164.0,3476.0,237.0,-262.0,564.0
-691.0,-57.0,308.0,-285.0,3428.0,-133.0,-337.0,686.0
315.0,-59.0,217.0,-373.0,3599.0,-479.0,-685.0,677.0
1319.0,-57.0,-108.0,-576.0,3853.0,-796.0,-1101.0,700.0
1441.0,-56.0,-733.0,-784.0,3916.0,-976.0,-1136.0,634.0
1194.0,-59.0,-617.0,-707.0,3916.0,-946.0,-989.0,634.0
633.0,-33.0,77.0,-462.0,3747.0,-750.0,-533.0,695.0
119.0,5.0,171.0,-305.0,3789.0,-344.0,45.0,881.0
-75.0,37.0,212.0,-191.0,3859.0,175.0,331.0,1053.0
-288.0,70.0,298.0,-163.0,2813.0,791.0,554.0,1047.0
-304.0,82.0,272.0,-165.0,1409.0,1344.0,673.0,1057.0
-323.0,121.0,305.0,-230.0,933.0,1799.0,619.0,1130.0
-295.0,122.0,202.0,-190.0,1417.0,2189.0,602.0,1176.0
-167.0,95.0,178.0,11.0,2176.0,2428.0,576.0,1221.0
-87.0,36.0,174.0,105.0,2630.0,2580.0,456.0,1334.0
-193.0,-79.0,187.0,127.0,3558.0,2694.0,587.0,1142.0
-271.0,-110.0,180.0,120.0,4000.0,2747.0,989.0,1085.0
-148.0,-66.0,215.0,205.0,3916.0,2694.0,1084.0,922.0
33.0,-44.0,309.0,236.0,2683.0,2645.0,875.0,796.0
90.0,-72.0,364.0,258.0,1124.0,2515.0,707.0,850.0
74.0,-104.0,428.0,259.0,1279.0,2320.0,576.0,804.0
106.0,-103.0,450.0,255.0,1509.0,2124.0,1019.0,775.0
97.0,-57.0,450.0,272.0,1213.0,1864.0,1996.0,507.0
123.0,-5.0,236.0,106.0,1053.0,1639.0,2190.0,357.0
106.0,17.0,-82.0,15.0,902.0,1343.0,1776.0,355.0
89.0,30.0,-134.0,76.0,1482.0,1083.0,1776.0,-189.0
82.0,18.0,31.0,199.0,1710.0,823.0,2190.0,-948.0
104.0,-5.0,30.0,240.0,1579.0,528.0,2514.0,-692.0
111.0,-18.0,23.0,245.0,1140.0,282.0,2811.0,-292.0
82.0,-21.0,-109.0,130.0,310.0,-9.0,3021.0,-42.0
66.0,-10.0,-144.0,108.0,-212.0,-297.0,2569.0,-10.0
47.0,12.0,-36.0,229.0,-123.0,-537.0,1575.0,-33.0
71.0,11.0,-11.0,7.0,-131.0,-816.0,1135.0,312.0
73.0,15.0,-56.0,-265.0,-665.0,-1097.0,1267.0,529.0
74.0,7.0,-358.0,-344.0,-1390.0,-1367.0,1575.0,719.0
77.0,-5.0,-368.0,-328.0,-2231.0,-1623.0,1406.0,564.0
70.0,-32.0,-229.0,-513.0,-3576.0,-1850.0,759.0,423.0
135.0,-65.0,-50.0,-487.0,-4000.0,-2054.0,738.0,503.0
530.0,-64.0,40.0,-250.0,-4000.0,-2221.0,816.0,564.0
725.0,-27.0,89.0,-206.0,-4000.0,-2337.0,989.0,532.0
314.0,-28.0,160.0,-147.0,-4000.0,-2403.0,962.0,536.0
74.0,-42.0,118.0,-224.0,-4000.0,-2480.0,416.0,662.0
-118.0,-27.0,142.0,-310.0,-4000.0,-2481.0,-55.0,1006.0
-331.0,-38.0,60.0,-371.0,-4000.0,-2469.0,-546.0,860.0
-386.0,-1.0,38.0,-103.0,-4000.0,-2406.0,-1382.0,-120.0
-419.0,-6.0,30.0,181.0,-4000.0,-2341.0,-2172.0,-108.0
-374.0,-28.0,46.0,435.0,-4000.0,-2286.0,-2597.0,-327.0
-360.0,-23.0,20.0,663.0,-4000.0,-2221.0,-2934.0,-781.0
-280.0,-37.0,-3.0,467.0,-4000.0,-2144.0,-2093.0,-883.0
-323.0,1.0,-30.0,337.0,-4000.0,-2040.0,-1120.0,-1383.0
-310.0,18.0,-87.0,264.0,-4000.0,-2014.0,-1071.0,-1208.0
-58.0,12.0,-15.0,356.0,-4000.0,-1949.0,-989.0,-1256.0
95.0,30.0,-9.0,490.0,-4000.0,-1850.0,-1168.0,-1325.0
51.0,5.0,6.0,301.0,-4000.0,-1747.0,-1651.0,-1461.0
-33.0,45.0,7.0,134.0,-4000.0,-1623.0,-1979.0,-1534.0
-18.0,73.0,9.0,69.0,-4000.0,-1518.0,-1950.0,-1626.0
3.0,49.0,56.0,251.0,-4000.0,-1376.0,-1848.0,-1891.0
23.0,28.0,102.0,649.0,-4000.0,-1304.0,-1726.0,-2004.0
49.0,2.0,80.0,310.0,-4000.0,-1184.0,-1652.0,-2193.0
56.0,-1.0,3.0,-277.0,-4000.0,-1062.0,-1636.0,-2049.0
76.0,-27.0,-8.0,-571.0,-4000.0,-988.0,-1397.0,-1970.0
116.0,-29.0,5.0,-841.0,-4000.0,-917.0,-1309.0,-1950.0
107.0,-36.0,-59.0,-914.0,-4000.0,-923.0,-1141.0,-2024.0
42.0,-55.0,-280.0,-1151.0,-4000.0,-924.0,-941.0,-2128.0
31.0,-81.0,-507.0,-1174.0,-3701.0,-897.0,-927.0,-2024.0
-36.0,-102.0,-607.0,-906.0,-2484.0,-904.0,-849.0,-2024.0
-72.0,-100.0,-424.0,-489.0,-1584.0,-867.0,-704.0,-2022.0
-44.0,-55.0,-274.0,-160.0,-791.0,-706.0,-658.0,-2063.0
-38.0,-4.0,-232.0,-66.0,270.0,-530.0,-849.0,-1921.0
55.0,-26.0,-93.0,142.0,1405.0,-327.0,-912.0,-1709.0
90.0,-10.0,-37.0,325.0,2646.0,-79.0,-581.0,-1540.0
102.0,46.0,34.0,428.0,3593.0,103.0,-176.0,-1365.0
118.0,40.0,27.0,400.0,4000.0,105.0,90.0,-1318.0
82.0,70.0,-50.0,413.0,4000.0,-371.0,185.0,-1265.0
82.0,91.0,8.0,484.0,4000.0,-1198.0,12.0,-1126.0
62.0,99.0,150.0,642.0,4000.0,-1753.0,-167.0,-940.0
37.0,76.0,231.0,663.0,4000.0,-1570.0,-172.0,-744.0
49.0,68.0,459.0,598.0,2711.0,-393.0,-68.0,-603.0
60.0,101.0,757.0,655.0,1192.0,1059.0,31.0,-586.0
56.0,95.0,937.0,568.0,706.0,1601.0,343.0,-562.0
66.0,99.0,807.0,386.0,857.0,1994.0,805.0,-512.0
74.0,78.0,253.0,12.0,745.0,3018.0,856.0,-388.0
73.0,64.0,-310.0,-184.0,36.0,2710.0,753.0,-193.0
59.0,57.0,-698.0,-226.0,-920.0,1799.0,665.0,22.0
53.0,52.0,-898.0,-241.0,-1182.0,1824.0,669.0,177.0
35.0,41.0,-976.0,-198.0,-795.0,1405.0,793.0,163.0
27.0,52.0,-804.0,-276.0,-356.0,1214.0,1013.0,210.0
49.0,33.0,-585.0,-265.0,-150.0,1287.0,1064.0,201.0
21.0,-24.0,-515.0,-336.0,264.0,947.0,642.0,271.0
-8.0,-3.0,-541.0,-397.0,1482.0,537.0,464.0,473.0
-60.0,-27.0,-607.0,-365.0,2825.0,278.0,693.0,569.0
-69.0,-59.0,-511.0,-285.0,4000.0,480.0,738.0,606.0
-41.0,-36.0,-340.0,-211.0,4000.0,433.0,824.0,695.0
-56.0,-47.0,-112.0,-155.0,4000.0,394.0,881.0,947.0
-21.0,-38.0,-26.0,-107.0,4000.0,664.0,860.0,874.0
-31.0,19.0,42.0,-110.0,3476.0,716.0,954.0,851.0
-14.0,11.0,142.0,-38.0,3072.0,339.0,824.0,927.0
-12.0,16.0,165.0,-17.0,3232.0,118.0,593.0,1091.0
-19.0,18.0,222.0,27.0,3346.0,-38.0,282.0,1338.0
64.0,28.0,318.0,94.0,3593.0,-177.0,120.0,1281.0
102.0,66.0,385.0,93.0,4000.0,-131.0,283.0,1281.0
104.0,50.0,107.0,47.0,4000.0,-81.0,527.0,1281.0
109.0,19.0,-206.0,17.0,4000.0,-3.0,888.0,1241.0
92.0,-1.0,-436.0,-16.0,4000.0,4.0,838.0,1020.0
4.0,-7.0,-1036.0,-127.0,2941.0,97.0,661.0,674.0
-36.0,-11.0,-1667.0,-273.0,1734.0,119.0,945.0,340.0
-55.0,4.0,-1878.0,-299.0,745.0,226.0,1092.0,2.0
-101.0,-28.0,-1321.0,-93.0,-148.0,368.0,1164.0,-141.0
-159.0,-8.0,262.0,84.0,-571.0,492.0,1158.0,-262.0
-201.0,17.0,1703.0,112.0,-999.0,628.0,921.0,-332.0
-208.0,20.0,2201.0,116.0,-1534.0,673.0,910.0,-223.0
-201.0,9.0,2160.0,123.0,-1606.0,683.0,1214.0,-44.0
-167.0,0.0,1562.0,94.0,-1833.0,660.0,1509.0,186.0
-184.0,0.0,964.0,93.0,-1638.0,673.0,1353.0,397.0
-150.0,-26.0,663.0,75.0,-990.0,608.0,791.0,593.0
-125.0,15.0,695.0,41.0,-409.0,660.0,510.0,751.0
-154.0,28.0,718.0,34.0,87.0,802.0,460.0,751.0
-138.0,3.0,541.0,-23.0,374.0,750.0,458.0,692.0
-117.0,-29.0,415.0,-83.0,666.0,592.0,571.0,635.0
-3.0,-8.0,200.0,-173.0,1009.0,419.0,278.0,666.0
53.0,-48.0,187.0,-190.0,1759.0,217.0,97.0,742.0
58.0,-25.0,309.0,-157.0,2516.0,103.0,23.0,634.0
69.0,-16.0,262.0,-190.0,2776.0,-13.0,24.0,509.0
30.0,-86.0,268.0,-214.0,3140.0,-140.0,2.0,361.0
21.0,-23.0,349.0,-155.0,3818.0,-197.0,-375.0,136.0
7.0,-53.0,234.0,-93.0,4000.0,-293.0,-576.0,-92.0
53.0,-30.0,190.0,-1.0,4000.0,-375.0,-750.0,-211.0
154.0,-17.0,166.0,33.0,4000.0,-428.0,-750.0,-253.0
260.0,-36.0,74.0,-19.0,4000.0,-541.0,-633.0,-313.0
196.0,-26.0,59.0,-32.0,4000.0,-676.0,-342.0,-315.0
216.0,-69.0,93.0,-106.0,4000.0,-855.0,-143.0,-275.0
725.0,-58.0,225.0,-188.0,4000.0,-1053.0,-58.0,-85.0
1365.0,-75.0,253.0,-265.0,3916.0,-1270.0,274.0,98.0
1376.0,-95.0,231.0,-328.0,3346.0,-1558.0,268.0,267.0
886.0,-72.0,150.0,-332.0,3916.0,-1792.0,209.0,409.0
358.0,-38.0,7.0,-141.0,4000.0,-2026.0,195.0,519.0
-132.0,-51.0,-70.0,2.0,4000.0,-2219.0,99.0,629.0
-516.0,-37.0,24.0,-2.0,4000.0,-2386.0,-38.0,621.0
-1019.0,-11.0,118.0,42.0,4000.0,-2549.0,-286.0,666.0
-1296.0,-24.0,125.0,18.0,4000.0,-2620.0,-500.0,716.0
-1487.0,-16.0,195.0,23.0,3916.0,-2595.0,-601.0,786.0
-1658.0,7.0,272.0,13.0,2683.0,-2479.0,-607.0,882.0
-1495.0,36.0,268.0,3.0,1253.0,-2156.0,-607.0,1052.0
-960.0,75.0,190.0,81.0,-37.0,-1672.0,-462.0,1260.0
-612.0,86.0,42.0,199.0,-730.0,-1232.0,-156.0,1334.0
-323.0,79.0,-11.0,250.0,-248.0,-836.0,-67.0,1391.0
-49.0,76.0,-14.0,232.0,-108.0,-440.0,-253.0,1468.0
-56.0,64.0,-72.0,246.0,-877.0,-47.0,-152.0,1567.0
52.0,103.0,0.0,203.0,-1945.0,411.0,-63.0,1892.0
56.0,106.0,4.0,152.0,-3444.0,988.0,-56.0,2237.0
112.0,85.0,-47.0,112.0,-4000.0,1657.0,65.0,1932.0
204.0,74.0,-61.0,290.0,-4000.0,2243.0,153.0,1651.0
315.0,56.0,-56.0,548.0,-4000.0,2818.0,297.0,1391.0
436.0,74.0,17.0,261.0,-4000.0,3395.0,249.0,1346.0
436.0,46.0,9.0,-126.0,-4000.0,3786.0,105.0,1586.0
430.0,43.0,18.0,-275.0,-3001.0,4000.0,-68.0,1698.0
381.0,19.0,3.0,-417.0,-2356.0,4000.0,-97.0,1818.0
328.0,-55.0,-71.0,-336.0,-2081.0,3851.0,-72.0,1633.0
273.0,-106.0,-93.0,-231.0,-2224.0,3036.0,-102.0,1598.0
263.0,-112.0,-167.0,-148.0,-1700.0,2112.0,-114.0,1502.0
249.0,-73.0,-215.0,-75.0,-180.0,1287.0,107.0,1525.0
202.0,-63.0,-292.0,87.0,541.0,795.0,934.0,1834.0
225.0,-21.0,-380.0,292.0,808.0,616.0,1658.0,1541.0
228.0,-48.0,-379.0,337.0,597.0,660.0,1628.0,961.0
202.0,-56.0,-385.0,308.0,-168.0,791.0,1158.0,536.0
196.0,-29.0,-454.0,262.0,-1512.0,882.0,593.0,19.0
212.0,-64.0,-702.0,280.0,-2548.0,944.0,154.0,-588.0
330.0,-6.0,-1166.0,248.0,-2444.0,961.0,-33.0,-1148.0
371.0,17.0,-2027.0,182.0,-1854.0,831.0,-274.0,-1540.0
187.0,4.0,-3083.0,45.0,-1463.0,557.0,-397.0,-1829.0
73.0,19.0,-2981.0,-59.0,-1833.0,273.0,-442.0,-1985.0
-35.0,19.0,-1468.0,-17.0,-2341.0,-44.0,-477.0,-1859.0
-143.0,27.0,374.0,48.0,-2386.0,-234.0,-472.0,-1774.0
-168.0,9.0,1739.0,-8.0,-1823.0,-267.0,-489.0,-1612.0
-158.0,-3.0,2289.0,-8.0,-1102.0,-262.0,-533.0,-1235.0
-111.0,-3.0,2195.0,15.0,-551.0,-227.0,-620.0,-883.0
-120.0,7.0,1639.0,0.0,-395.0,-240.0,-729.0,-990.0
-102.0,0.0,903.0,10.0,-644.0,-247.0,-912.0,-1208.0
-92.0,5.0,344.0,19.0,-677.0,-167.0,-1048.0,-1175.0
-69.0,37.0,-67.0,41.0,159.0,202.0,-1128.0,-1200.0
-67.0,52.0,-563.0,32.0,1313.0,725.0,-1252.0,-1078.0
-69.0,30.0,-906.0,88.0,2289.0,1128.0,-1332.0,-818.0
-47.0,40.0,-1492.0,95.0,2683.0,1292.0,-1373.0,-791.0
-19.0,59.0,-1831.0,106.0,2320.0,1182.0,-1332.0,-908.0
-27.0,34.0,-1171.0,88.0,2190.0,1018.0,-1323.0,-1039.0
-21.0,50.0,-661.0,18.0,2374.0,902.0,-1266.0,-1058.0
-197.0,34.0,-155.0,31.0,2630.0,888.0,-1233.0,-948.0
-616.0,25.0,205.0,0.0,2760.0,896.0,-1227.0,-996.0
-523.0,22.0,160.0,-57.0,2810.0,921.0,-1173.0,-940.0
-88.0,30.0,40.0,-99.0,2813.0,961.0,-1136.0,-370.0
187.0,41.0,-172.0,-92.0,2907.0,994.0,-1071.0,241.0
393.0,27.0,-363.0,-94.0,3204.0,1018.0,-986.0,-59.0
406.0,22.0,-557.0,-111.0,3085.0,953.0,-912.0,-973.0
342.0,18.0,-532.0,-83.0,2578.0,867.0,-817.0,-1558.0
187.0,24.0,-416.0,-97.0,1853.0,811.0,-723.0,-1445.0
-7.0,46.0,-375.0,-107.0,1333.0,831.0,-613.0,-1111.0
30.0,55.0,-338.0,-95.0,1207.0,919.0,-555.0,-1120.0
114.0,14.0,-232.0,-100.0,1188.0,831.0,-555.0,-985.0
168.0,-1.0,-214.0,-69.0,1083.0,592.0,-485.0,-781.0
214.0,2.0,-159.0,-83.0,1026.0,298.0,-337.0,-584.0
163.0,12.0,-90.0,-139.0,994.0,-13.0,-245.0,-788.0
77.0,34.0,-3.0,-137.0,953.0,-247.0,-204.0,-1135.0
76.0,60.0,183.0,-123.0,1032.0,-450.0,-174.0,-1185.0
42.0,47.0,110.0,-88.0,804.0,-678.0,-176.0,-1234.0
36.0,30.0,-179.0,-64.0,412.0,-917.0,-90.0,-1143.0
82.0,16.0,-189.0,-55.0,-10.0,-1158.0,-27.0,-1078.0
-13.0,-37.0,195.0,-74.0,-242.0,-1487.0,-8.0,-889.0
-135.0,-30.0,415.0,-39.0,65.0,-1831.0,59.0,-594.0
-180.0,-23.0,590.0,0.0,72.0,-1989.0,94.0,-736.0
-141.0,-1.0,402.0,-49.0,-533.0,-2079.0,83.0,-1208.0
-55.0,35.0,187.0,-72.0,-1398.0,-2386.0,126.0,-1315.0
-110.0,42.0,263.0,-93.0,-2156.0,-2432.0,178.0,-1180.0
-250.0,56.0,-92.0,-115.0,-2859.0,-2469.0,129.0,-1169.0
-719.0,63.0,-190.0,-82.0,-3408.0,-2403.0,148.0,-1322.0
-1149.0,37.0,56.0,-63.0,-3639.0,-2026.0,165.0,-1439.0
-457.0,-33.0,272.0,-69.0,-3883.0,-2025.0,37.0,-1445.0
-29.0,-127.0,716.0,-17.0,-4000.0,-1814.0,-81.0,-1241.0
-376.0,-161.0,858.0,25.0,-4000.0,-1715.0,11.0,-789.0
-149.0,-151.0,720.0,19.0,-3917.0,-1886.0,248.0,-412.0
465.0,-76.0,546.0,-10.0,-3339.0,-1915.0,384.0,-33.0
804.0,40.0,498.0,2.0,-2921.0,-1586.0,421.0,334.0
733.0,41.0,585.0,28.0,-2611.0,-1167.0,343.0,662.0
538.0,37.0,512.0,-3.0,-2287.0,-1127.0,268.0,935.0
368.0,77.0,450.0,34.0,-1797.0,-901.0,299.0,1198.0
119.0,95.0,290.0,61.0,-1588.0,-810.0,339.0,1633.0
-75.0,50.0,139.0,32.0,-1740.0,-722.0,376.0,1989.0
-168.0,-1.0,130.0,10.0,-2094.0,-597.0,433.0,2118.0
-222.0,-26.0,178.0,6.0,-2341.0,-505.0,498.0,1989.0
-132.0,-127.0,134.0,-4.0,-2598.0,-362.0,516.0,1859.0
-106.0,-133.0,30.0,-19.0,-2794.0,-306.0,527.0,1716.0
-346.0,-111.0,-3.0,2.0,-2818.0,-224.0,492.0,1476.0
-645.0,-62.0,-50.0,-22.0,-2856.0,-182.0,457.0,1221.0
45.0,-2.0,-37.0,-13.0,-2660.0,-92.0,449.0,941.0
1059.0,13.0,-46.0,-2.0,-2386.0,-106.0,467.0,788.0
1026.0,60.0,-54.0,0.0,-2274.0,-304.0,497.0,796.0
824.0,51.0,-70.0,-7.0,-2180.0,-593.0,615.0,927.0
351.0,68.0,-119.0,-20.0,-1885.0,-510.0,726.0,1260.0
-190.0,10.0,-129.0,-53.0,-1499.0,-207.0,738.0,2054.0
-474.0,1.0,-143.0,-41.0,-942.0,49.0,824.0,3079.0
-641.0,33.0,-157.0,-41.0,-476.0,221.0,883.0,3263.0
-679.0,6.0,-112.0,-86.0,-490.0,43.0,954.0,2550.0
-737.0,-11.0,-90.0,-51.0,-508.0,282.0,1119.0,2544.0
-510.0,-56.0,-106.0,-48.0,-515.0,857.0,1129.0,3226.0
-392.0,-64.0,-57.0,-41.0,-448.0,947.0,1084.0,2754.0
-331.0,-13.0,-50.0,-39.0,-242.0,817.0,1125.0,1859.0
-229.0,35.0,-56.0,-46.0,101.0,351.0,1141.0,1156.0
-201.0,77.0,-47.0,-61.0,570.0,455.0,1184.0,535.0
-314.0,134.0,-49.0,-54.0,928.0,628.0,1280.0,629.0
-428.0,140.0,-6.0,-7.0,1163.0,394.0,1223.0,-295.0
-192.0,160.0,60.0,-15.0,865.0,361.0,1141.0,-1534.0
30.0,152.0,61.0,-14.0,282.0,333.0,1064.0,-1579.0
71.0,45.0,34.0,-24.0,-106.0,664.0,878.0,-1213.0
96.0,-69.0,42.0,-17.0,264.0,719.0,693.0,-734.0
23.0,-163.0,13.0,-16.0,1800.0,701.0,510.0,-1377.0
-4.0,-147.0,-24.0,-37.0,3476.0,685.0,268.0,-1200.0
13.0,-40.0,-16.0,-29.0,4000.0,361.0,48.0,-815.0
56.0,21.0,42.0,-19.0,4000.0,235.0,-117.0,-1469.0
114.0,-21.0,60.0,-27.0,4000.0,571.0,-298.0,-66.0
177.0,3.0,38.0,-15.0,4000.0,876.0,-428.0,1346.0
204.0,13.0,46.0,27.0,4000.0,1148.0,-379.0,781.0
133.0,3.0,14.0,39.0,4000.0,1405.0,33.0,739.0
82.0,-34.0,24.0,48.0,4000.0,1222.0,889.0,269.0
103.0,-68.0,31.0,56.0,3606.0,1340.0,2033.0,-196.0
44.0,34.0,6.0,48.0,3346.0,1409.0,3075.0,-64.0
-221.0,65.0,4.0,18.0,4000.0,1214.0,3795.0,-265.0
-407.0,106.0,-6.0,-1.0,4000.0,941.0,4000.0,216.0
-392.0,90.0,28.0,-24.0,4000.0,888.0,4000.0,414.0
-245.0,40.0,-34.0,-53.0,4000.0,947.0,4000.0,338.0
55.0,28.0,-52.0,-72.0,4000.0,831.0,4000.0,369.0
-392.0,50.0,47.0,-82.0,4000.0,1026.0,4000.0,341.0
-1466.0,51.0,52.0,-112.0,4000.0,1462.0,4000.0,369.0
-518.0,4.0,24.0,-127.0,4000.0,1508.0,3876.0,357.0
1116.0,31.0,60.0,-76.0,4000.0,1189.0,1801.0,108.0
1559.0,25.0,4.0,-61.0,4000.0,921.0,-26.0,-111.0
1791.0,-14.0,-49.0,-62.0,4000.0,576.0,-1189.0,490.0
1194.0,-39.0,-50.0,-18.0,3592.0,445.0,-2314.0,1252.0
757.0,14.0,-116.0,6.0,1694.0,563.0,-3119.0,1006.0
412.0,63.0,-101.0,23.0,-38.0,857.0,-3752.0,569.0
61.0,59.0,53.0,31.0,-1109.0,1397.0,-4000.0,340.0
-185.0,-4.0,166.0,-12.0,-3982.0,1787.0,-4000.0,122.0
-486.0,-114.0,148.0,-44.0,-4000.0,1905.0,-4000.0,216.0
-285.0,-204.0,201.0,-77.0,-4000.0,1848.0,-4000.0,271.0
-189.0,-166.0,205.0,-71.0,-4000.0,1666.0,-4000.0,-26.0
-105.0,-69.0,253.0,-34.0,-4000.0,961.0,-4000.0,-447.0
-94.0,-16.0,307.0,-38.0,-4000.0,494.0,-4000.0,-224.0
-66.0,-50.0,135.0,-49.0,-4000.0,311.0,-4000.0,-671.0
-183.0,-128.0,-20.0,-63.0,-4000.0,339.0,-4000.0,-1449.0
-190.0,-66.0,-85.0,-30.0,-4000.0,693.0,-4000.0,-1298.0
-157.0,-3.0,-108.0,-44.0,-4000.0,563.0,-4000.0,-1298.0
-206.0,6.0,-104.0,-72.0,-4000.0,510.0,-4000.0,-1404.0
-102.0,-5.0,-119.0,-47.0,-4000.0,329.0,-3302.0,-1578.0
-151.0,-55.0,-59.0,-35.0,-4000.0,276.0,-2610.0,-1888.0
-148.0,-106.0,-38.0,-34.0,-3148.0,368.0,-2435.0,-2230.0
-185.0,-128.0,84.0,-34.0,348.0,260.0,-2251.0,-2088.0
-166.0,-111.0,402.0,28.0,2124.0,237.0,-1944.0,-608.0
-47.0,-89.0,564.0,77.0,2842.0,-38.0,-1264.0,-211.0
71.0,-65.0,511.0,37.0,3037.0,-224.0,-642.0,-94.0
26.0,-88.0,382.0,12.0,2485.0,-411.0,-298.0,491.0
-43.0,-89.0,253.0,39.0,1669.0,-435.0,-260.0,320.0
-17.0,-31.0,98.0,81.0,945.0,-481.0,-212.0,603.0
-195.0,43.0,14.0,104.0,320.0,-810.0,-238.0,499.0
-392.0,65.0,-64.0,71.0,90.0,-686.0,-485.0,531.0
-291.0,111.0,-94.0,31.0,-324.0,-586.0,-852.0,361.0
-45.0,135.0,-85.0,20.0,-523.0,-875.0,-1254.0,145.0
55.0,95.0,-123.0,15.0,902.0,-1038.0,-1636.0,108.0
128.0,152.0,-114.0,77.0,2426.0,-1170.0,-1848.0,-125.0
151.0,182.0,-133.0,377.0,3204.0,-1070.0,-1702.0,-201.0
257.0,181.0,-87.0,452.0,4000.0,-685.0,-1370.0,-427.0
277.0,170.0,-95.0,23.0,4000.0,-1054.0,-510.0,-506.0
238.0,160.0,-162.0,-271.0,4000.0,-1669.0,475.0,-744.0
269.0,167.0,-143.0,-423.0,4000.0,-1883.0,1063.0,-833.0
249.0,157.0,-167.0,-495.0,4000.0,-1961.0,1658.0,-948.0
86.0,108.0,-168.0,-433.0,4000.0,-1915.0,2190.0,-1120.0
-20.0,-8.0,-106.0,-446.0,4000.0,-2091.0,2379.0,-1259.0
-31.0,-111.0,-129.0,-391.0,4000.0,-2738.0,2503.0,-1375.0
-34.0,-114.0,-144.0,-276.0,4000.0,-2819.0,3021.0,-1429.0
33.0,-30.0,-128.0,-78.0,4000.0,-2402.0,3205.0,-1655.0
89.0,5.0,-129.0,42.0,4000.0,-2250.0,3203.0,-1839.0
35.0,48.0,-37.0,99.0,4000.0,-2112.0,3397.0,-1888.0
-37.0,90.0,33.0,166.0,4000.0,-2063.0,3347.0,-1526.0
-31.0,50.0,60.0,337.0,4000.0,-1915.0,3298.0,-1188.0
-58.0,-25.0,36.0,382.0,4000.0,-1737.0,3333.0,-1384.0
64.0,-32.0,-17.0,207.0,3529.0,-1586.0,3298.0,-1613.0
100.0,9.0,-49.0,168.0,3085.0,-1322.0,3216.0,-1013.0
58.0,64.0,-72.0,120.0,2581.0,-1070.0,3216.0,-1070.0
6.0,12.0,-103.0,12.0,2578.0,-770.0,3216.0,-1925.0
-85.0,-89.0,-234.0,-195.0,3281.0,-548.0,3075.0,-1339.0
-87.0,-59.0,-280.0,-288.0,4000.0,-337.0,3009.0,-627.0
-291.0,-69.0,-226.0,-246.0,4000.0,-137.0,2948.0,-692.0
-893.0,-49.0,-180.0,-157.0,4000.0,85.0,2956.0,-350.0
-2345.0,12.0,-114.0,-79.0,4000.0,290.0,2956.0,-211.0
-2336.0,84.0,-108.0,-174.0,4000.0,498.0,1825.0,-66.0
199.0,194.0,-86.0,-137.0,4000.0,837.0,-1527.0,148.0
1766.0,179.0,-53.0,97.0,1340.0,1279.0,-4000.0,241.0
2264.0,134.0,-72.0,96.0,-3391.0,1645.0,-4000.0,465.0
1702.0,47.0,-50.0,-50.0,-4000.0,1901.0,-4000.0,609.0
958.0,-133.0,-38.0,-48.0,-4000.0,2060.0,-3520.0,817.0
434.0,-269.0,-31.0,-162.0,-4000.0,2190.0,-676.0,922.0
-165.0,-318.0,-2.0,-82.0,-4000.0,2490.0,3075.0,1057.0
-260.0,-288.0,53.0,19.0,-4000.0,2512.0,4000.0,1142.0
-1072.0,-150.0,80.0,-5.0,-4000.0,2124.0,4000.0,1177.0
-1585.0,-27.0,75.0,47.0,-4000.0,1734.0,4000.0,1260.0
-628.0,48.0,89.0,152.0,-4000.0,1852.0,4000.0,1326.0
595.0,99.0,98.0,173.0,-4000.0,1980.0,4000.0,1372.0
961.0,75.0,60.0,145.0,-4000.0,1929.0,4000.0,1390.0
954.0,13.0,-15.0,270.0,-4000.0,1775.0,3811.0,1346.0
214.0,-73.0,-67.0,197.0,-4000.0,1533.0,2749.0,1286.0
-168.0,-137.0,-75.0,55.0,-4000.0,2450.0,1667.0,1460.0
8.0,-92.0,-61.0,60.0,-4000.0,2824.0,1190.0,1329.0
49.0,-74.0,-81.0,142.0,-4000.0,1720.0,597.0,925.0
157.0,-66.0,-42.0,179.0,-4000.0,1222.0,209.0,784.0
169.0,-37.0,-25.0,92.0,-3575.0,1314.0,-156.0,742.0
245.0,38.0,-32.0,33.0,-2664.0,1269.0,-510.0,645.0
150.0,82.0,-34.0,28.0,-1703.0,940.0,-704.0,227.0
-32.0,86.0,-93.0,-103.0,-780.0,681.0,-986.0,-228.0
-313.0,129.0,-175.0,-223.0,-85.0,678.0,-1238.0,-1013.0
-331.0,134.0,-138.0,-100.0,440.0,557.0,-1422.0,-954.0
-697.0,152.0,-32.0,-44.0,367.0,402.0,-1635.0,615.0
-2049.0,187.0,-64.0,-206.0,290.0,155.0,-1749.0,528.0
-2498.0,162.0,-8.0,-332.0,496.0,-86.0,-1816.0,473.0
-647.0,132.0,10.0,-316.0,171.0,-17.0,-1832.0,686.0
954.0,55.0,15.0,-237.0,-464.0,54.0,-1897.0,478.0
1606.0,-77.0,30.0,-105.0,-1052.0,-163.0,-1917.0,794.0
1181.0,-122.0,39.0,-69.0,-1292.0,-224.0,-1914.0,550.0
293.0,-49.0,67.0,-187.0,-1312.0,-326.0,-1914.0,629.0
399.0,-32.0,52.0,-316.0,-1333.0,-410.0,-1884.0,442.0
166.0,-59.0,63.0,-343.0,-1194.0,-456.0,-1884.0,397.0
208.0,-112.0,11.0,-213.0,-934.0,-481.0,-1848.0,377.0
334.0,-149.0,49.0,-120.0,-450.0,-393.0,-1783.0,222.0
224.0,-133.0,45.0,-44.0,40.0,-362.0,-1702.0,209.0
82.0,-78.0,-18.0,5.0,162.0,-375.0,-1599.0,78.0
-95.0,-5.0,27.0,-200.0,469.0,-541.0,-1445.0,94.0
-51.0,-18.0,47.0,-255.0,473.0,-645.0,-1383.0,-85.0
-193.0,-17.0,88.0,11.0,335.0,-648.0,-1332.0,-262.0
-157.0,-5.0,122.0,179.0,450.0,-663.0,-1312.0,-641.0
5.0,38.0,100.0,326.0,266.0,-926.0,-1228.0,-870.0
-144.0,81.0,82.0,365.0,46.0,-1226.0,-1120.0,-983.0
-280.0,64.0,107.0,345.0,118.0,-1070.0,-1120.0,-801.0
-201.0,34.0,107.0,422.0,300.0,-919.0,-967.0,-78.0
-91.0,21.0,76.0,453.0,532.0,-657.0,-856.0,961.0
-45.0,47.0,63.0,655.0,953.0,-526.0,-876.0,2054.0
-120.0,41.0,112.0,935.0,1313.0,-555.0,-973.0,2835.0
-232.0,24.0,120.0,752.0,1604.0,-362.0,-973.0,3291.0
-664.0,7.0,51.0,301.0,1547.0,-289.0,-620.0,3209.0
-749.0,29.0,10.0,69.0,1417.0,-375.0,-477.0,2934.0
-157.0,18.0,-36.0,-195.0,1525.0,-459.0,-737.0,2498.0
134.0,43.0,-68.0,-225.0,1254.0,-526.0,-781.0,1859.0
569.0,11.0,-145.0,-247.0,831.0,-849.0,-546.0,1260.0
935.0,-37.0,-143.0,-365.0,480.0,-1005.0,-331.0,519.0
920.0,11.0,-154.0,-336.0,432.0,-1375.0,-262.0,-186.0
725.0,-22.0,-226.0,-301.0,570.0,-1746.0,-611.0,-753.0
371.0,-57.0,-119.0,-265.0,683.0,-1496.0,-394.0,-1324.0
212.0,-29.0,-45.0,-359.0,902.0,-1452.0,809.0,-1839.0
60.0,21.0,-36.0,-300.0,1136.0,-1200.0,1539.0,-2295.0
-4.0,44.0,61.0,-223.0,1222.0,-1122.0,1646.0,-2617.0
-4.0,-1.0,122.0,-149.0,1148.0,-1461.0,1518.0,-2741.0
-89.0,-11.0,147.0,-46.0,1292.0,-1056.0,1580.0,-2735.0
-457.0,0.0,136.0,30.0,1704.0,-875.0,1787.0,-2513.0
-684.0,-36.0,76.0,-5.0,1920.0,-1461.0,1467.0,-2230.0
-88.0,-35.0,89.0,-30.0,2124.0,-1558.0,750.0,-1860.0
285.0,2.0,42.0,-23.0,2578.0,-1774.0,-261.0,-1540.0
281.0,98.0,27.0,-116.0,3297.0,-1205.0,-707.0,-1271.0
586.0,140.0,-22.0,-88.0,4000.0,-706.0,-550.0,-931.0
192.0,93.0,-48.0,-56.0,4000.0,-2138.0,-717.0,-627.0
-589.0,70.0,-40.0,-49.0,4000.0,-2738.0,-1373.0,-356.0
-1064.0,17.0,-94.0,-150.0,4000.0,-2219.0,-2028.0,-175.0
-1534.0,18.0,-80.0,-136.0,4000.0,-1308.0,-1462.0,28.0
-1915.0,56.0,-95.0,-106.0,4000.0,-630.0,-167.0,182.0
-1292.0,66.0,-101.0,-75.0,4000.0,-314.0,160.0,332.0
447.0,121.0,-60.0,47.0,4000.0,896.0,-327.0,474.0
961.0,124.0,56.0,1.0,4000.0,791.0,100.0,597.0
768.0,99.0,85.0,-18.0,4000.0,-462.0,1288.0,731.0
784.0,77.0,124.0,-13.0,4000.0,-640.0,1418.0,831.0
568.0,7.0,193.0,84.0,4000.0,-511.0,759.0,955.0
204.0,-27.0,187.0,188.0,4000.0,-459.0,163.0,1004.0
73.0,-42.0,122.0,190.0,4000.0,54.0,-489.0,1077.0
342.0,-79.0,4.0,8.0,4000.0,339.0,-1096.0,1142.0
576.0,-39.0,-62.0,-93.0,4000.0,223.0,-1397.0,1122.0
660.0,-35.0,-112.0,-61.0,4000.0,-200.0,-1201.0,988.0
495.0,-100.0,-60.0,-81.0,4000.0,-383.0,-385.0,795.0
351.0,-134.0,-36.0,47.0,4000.0,-281.0,738.0,615.0
-253.0,-87.0,-46.0,66.0,4000.0,-378.0,1084.0,389.0
-569.0,4.0,-87.0,116.0,4000.0,-773.0,1060.0,253.0
-221.0,99.0,-101.0,190.0,3281.0,-901.0,1070.0,218.0
-44.0,189.0,-83.0,258.0,1848.0,-281.0,576.0,103.0
-14.0,156.0,-95.0,178.0,344.0,-219.0,954.0,-67.0
-305.0,50.0,-87.0,-154.0,-1292.0,19.0,1509.0,-158.0
-457.0,-13.0,-70.0,-282.0,-3018.0,185.0,767.0,-254.0
-294.0,-64.0,-16.0,-288.0,-4000.0,-143.0,-837.0,-334.0
-118.0,-111.0,-9.0,-252.0,-4000.0,-53.0,-1533.0,-442.0
-93.0,-109.0,-49.0,-214.0,-4000.0,-278.0,-837.0,-496.0
-149.0,-97.0,-230.0,-127.0,-4000.0,-373.0,-442.0,-538.0
-412.0,-91.0,-631.0,-66.0,-4000.0,-79.0,-940.0,-679.0
-979.0,-49.0,-976.0,63.0,-4000.0,380.0,266.0,-748.0
-144.0,-12.0,-626.0,305.0,-4000.0,693.0,1825.0,-736.0
957.0,-32.0,30.0,341.0,-4000.0,571.0,170.0,-685.0
900.0,-10.0,-210.0,270.0,-4000.0,-1582.0,-1572.0,-603.0
580.0,-5.0,-625.0,203.0,-4000.0,-3051.0,-555.0,-427.0
608.0,-20.0,-1078.0,134.0,-4000.0,-1376.0,492.0,-223.0
408.0,-24.0,-938.0,51.0,-4000.0,-1122.0,-383.0,-49.0
-39.0,-56.0,760.0,-19.0,-4000.0,-1308.0,-2223.0,206.0
-211.0,-73.0,2027.0,-28.0,-4000.0,-751.0,-4000.0,518.0
-823.0,-121.0,2347.0,-103.0,-4000.0,-120.0,-4000.0,825.0
-1365.0,-104.0,2083.0,-125.0,-4000.0,1018.0,-2483.0,1026.0
-1201.0,-106.0,1361.0,-29.0,-4000.0,243.0,-852.0,1187.0
342.0,-156.0,689.0,-25.0,-4000.0,-712.0,510.0,1338.0
1319.0,-128.0,60.0,-8.0,-4000.0,-615.0,680.0,1456.0
1637.0,-69.0,-316.0,-3.0,-4000.0,-318.0,1540.0,1568.0
1026.0,-39.0,-512.0,-18.0,-4000.0,376.0,779.0,1598.0
-84.0,-5.0,-494.0,-24.0,-4000.0,1071.0,159.0,1533.0
-407.0,53.0,-782.0,-38.0,-4000.0,1852.0,356.0,1411.0
-89.0,120.0,-1667.0,16.0,-4000.0,2515.0,113.0,1260.0
0.0,114.0,-2009.0,1.0,-4000.0,2824.0,652.0,1091.0
-545.0,99.0,-943.0,64.0,-4000.0,2442.0,1475.0,988.0
-360.0,158.0,-119.0,104.0,-4000.0,2512.0,1670.0,851.0
-871.0,144.0,476.0,55.0,-3687.0,2759.0,2049.0,760.0
-1459.0,197.0,988.0,29.0,-27.0,2425.0,1337.0,804.0
-1698.0,199.0,793.0,-29.0,3875.0,2319.0,-249.0,890.0
-1300.0,196.0,772.0,-40.0,4000.0,2550.0,-1032.0,1020.0
-1045.0,268.0,465.0,-24.0,4000.0,2617.0,-1783.0,1085.0
-549.0,225.0,343.0,-65.0,4000.0,2094.0,-2434.0,1130.0
82.0,200.0,288.0,-115.0,4000.0,2159.0,-3898.0,1201.0
-288.0,222.0,124.0,-59.0,4000.0,2385.0,-3472.0,1272.0
-150.0,300.0,-116.0,-35.0,4000.0,2373.0,-2626.0,1319.0
82.0,233.0,-425.0,5.0,4000.0,2629.0,-2223.0,1252.0
308.0,184.0,-486.0,16.0,4000.0,2490.0,-1193.0,1000.0
489.0,133.0,-672.0,9.0,4000.0,2577.0,-1551.0,751.0
654.0,-22.0,-746.0,109.0,4000.0,2428.0,-1583.0,695.0
863.0,-98.0,-1479.0,120.0,4000.0,1704.0,-3106.0,788.0
833.0,-190.0,-1557.0,45.0,4000.0,1279.0,-4000.0,794.0
725.0,-234.0,20.0,-7.0,4000.0,988.0,-4000.0,700.0
603.0,-278.0,437.0,-57.0,4000.0,758.0,-576.0,731.0
543.0,-281.0,1088.0,-74.0,4000.0,429.0,2086.0,600.0
589.0,-269.0,1609.0,122.0,4000.0,831.0,2647.0,304.0
782.0,-253.0,1249.0,220.0,4000.0,1734.0,3168.0,22.0
755.0,-208.0,1224.0,-177.0,4000.0,2189.0,4000.0,-323.0
574.0,-137.0,592.0,-502.0,4000.0,2629.0,3282.0,-713.0
530.0,-109.0,205.0,-513.0,4000.0,1333.0,-1551.0,-1127.0
644.0,-122.0,-182.0,-458.0,4000.0,-11.0,-1735.0,-1735.0
603.0,-21.0,-318.0,-316.0,3202.0,351.0,-420.0,-2362.0
110.0,47.0,-383.0,-278.0,1938.0,1769.0,883.0,-2918.0
-27.0,86.0,-445.0,-108.0,924.0,3280.0,1580.0,-3527.0
-13.0,79.0,-419.0,116.0,-2.0,3280.0,3282.0,-4000.0
86.0,40.0,-413.0,93.0,-1007.0,3409.0,4000.0,-4000.0
371.0,43.0,-340.0,59.0,-1951.0,3409.0,2843.0,-4000.0
303.0,64.0,-336.0,76.0,-2561.0,4000.0,2033.0,-4000.0
9.0,21.0,-218.0,85.0,-3250.0,3901.0,1866.0,-4000.0
-91.0,-8.0,-215.0,97.0,-4000.0,1734.0,1255.0,-4000.0
266.0,-18.0,-88.0,50.0,-4000.0,1279.0,726.0,-4000.0
142.0,-42.0,-53.0,50.0,-4000.0,1012.0,-1664.0,-4000.0
-138.0,-33.0,-9.0,145.0,-4000.0,1340.0,-2805.0,-4000.0
334.0,-25.0,38.0,191.0,-4000.0,888.0,-1897.0,-4000.0
-43.0,-5.0,10.0,199.0,-4000.0,469.0,1078.0,-3923.0
-719.0,-27.0,45.0,207.0,-4000.0,-62.0,3811.0,-3581.0
-886.0,-40.0,82.0,190.0,-4000.0,-611.0,3885.0,-3191.0
-1365.0,-12.0,131.0,106.0,-4000.0,-680.0,4000.0,-2698.0
-1560.0,49.0,50.0,-49.0,-4000.0,-1135.0,4000.0,-2256.0
-941.0,112.0,-55.0,-244.0,-4000.0,-1311.0,3791.0,-2472.0
1246.0,157.0,-84.0,-336.0,-4000.0,-1497.0,2681.0,-2876.0
2453.0,87.0,-41.0,-293.0,-4000.0,-1379.0,1418.0,-3309.0
1832.0,-51.0,-42.0,-125.0,-4000.0,-1487.0,2232.0,-3545.0
1476.0,-136.0,-57.0,-47.0,-4000.0,-1664.0,4000.0,-3462.0
62.0,-225.0,-9.0,-279.0,-4000.0,-1774.0,4000.0,-3203.0
-1817.0,-299.0,-16.0,-487.0,-4000.0,-1896.0,4000.0,-2800.0
-2891.0,-267.0,-31.0,-521.0,-4000.0,-1915.0,3397.0,-2344.0
-3372.0,-205.0,34.0,-414.0,-4000.0,-2063.0,3151.0,-1762.0
-2920.0,-165.0,95.0,-157.0,-4000.0,-2156.0,4000.0,-1083.0
-1886.0,-122.0,103.0,-83.0,-4000.0,-2138.0,2811.0,-545.0
-1346.0,-77.0,107.0,23.0,-4000.0,-1850.0,1921.0,-158.0
-1039.0,-42.0,92.0,276.0,-4000.0,-1570.0,707.0,143.0
-590.0,-16.0,33.0,264.0,-4000.0,-1121.0,714.0,-9.0
-218.0,95.0,24.0,222.0,-4000.0,-855.0,945.0,-610.0
137.0,208.0,49.0,194.0,-4000.0,-1010.0,1800.0,-1330.0
483.0,268.0,52.0,52.0,-4000.0,-852.0,1149.0,-2062.0
517.0,256.0,19.0,44.0,-3539.0,-706.0,-750.0,-2283.0
589.0,273.0,-12.0,-118.0,-2289.0,-1168.0,-2512.0,-1904.0
841.0,294.0,2.0,-214.0,-1129.0,-1650.0,-4000.0,-779.0
929.0,321.0,25.0,-93.0,-49.0,-1746.0,-2886.0,1183.0
849.0,338.0,59.0,-25.0,941.0,-1912.0,-1652.0,3340.0
782.0,290.0,107.0,-23.0,2100.0,-1430.0,-1718.0,4000.0
965.0,280.0,153.0,4.0,3476.0,-663.0,-1116.0,4000.0
1181.0,197.0,189.0,84.0,4000.0,-661.0,-642.0,4000.0
1116.0,146.0,131.0,93.0,4000.0,-565.0,-472.0,4000.0
929.0,105.0,98.0,152.0,4000.0,-635.0,-30.0,4000.0
958.0,108.0,177.0,220.0,4000.0,-613.0,-267.0,4000.0
574.0,118.0,160.0,223.0,4000.0,-737.0,-32.0,4000.0
108.0,109.0,130.0,188.0,4000.0,-835.0,802.0,4000.0
157.0,94.0,-5.0,175.0,4000.0,-672.0,-933.0,4000.0
52.0,-8.0,-141.0,165.0,4000.0,-556.0,-3313.0,4000.0
524.0,-48.0,-106.0,133.0,4000.0,-362.0,-4000.0,4000.0
1376.0,-136.0,-148.0,87.0,4000.0,-358.0,-4000.0,4000.0
2157.0,-278.0,-173.0,47.0,4000.0,-238.0,-4000.0,4000.0
2211.0,-465.0,-311.0,55.0,4000.0,-239.0,888.0,4000.0
1875.0,-595.0,-651.0,13.0,4000.0,-318.0,2879.0,4000.0
1498.0,-546.0,-757.0,-16.0,4000.0,-702.0,2190.0,224.0
-302.0,-500.0,-1036.0,-11.0,4000.0,-1242.0,1293.0,-2941.0
-1521.0,-425.0,-1101.0,16.0,4000.0,-1961.0,315.0,-4000.0
-2031.0,-326.0,-538.0,24.0,4000.0,-2774.0,-595.0,-4000.0
-2517.0,-293.0,110.0,-34.0,4000.0,-2803.0,-703.0,-4000.0
-2528.0,-239.0,1414.0,-39.0,4000.0,-1233.0,-817.0,-4000.0
-2810.0,-117.0,1890.0,-14.0,4000.0,336.0,-836.0,-4000.0
-2773.0,41.0,1550.0,-35.0,4000.0,-318.0,-1128.0,-4000.0
-2486.0,187.0,891.0,-17.0,4000.0,-472.0,-1897.0,-4000.0
-1223.0,217.0,-175.0,-62.0,4000.0,-297.0,-2842.0,-4000.0
1026.0,206.0,-204.0,-103.0,4000.0,-489.0,-3184.0,-4000.0
1030.0,229.0,-94.0,-82.0,4000.0,-49.0,-2985.0,-4000.0
-685.0,224.0,-16.0,-61.0,4000.0,132.0,-1884.0,-4000.0
-1411.0,276.0,62.0,7.0,4000.0,-262.0,-81.0,-4000.0
-1817.0,235.0,-161.0,-18.0,4000.0,-596.0,871.0,-4000.0
-1162.0,138.0,-203.0,2.0,3541.0,-98.0,667.0,-4000.0
603.0,60.0,-277.0,42.0,2503.0,126.0,111.0,-4000.0
1887.0,34.0,-277.0,-10.0,1918.0,325.0,-473.0,-4000.0
1634.0,160.0,-277.0,-3.0,1340.0,687.0,-501.0,-4000.0
564.0,229.0,-306.0,-2.0,706.0,657.0,134.0,-3634.0
-311.0,258.0,-139.0,27.0,569.0,681.0,315.0,-2415.0
-1430.0,245.0,-99.0,12.0,-63.0,486.0,506.0,-1453.0
-1886.0,176.0,-123.0,5.0,-391.0,225.0,580.0,-659.0
-1195.0,76.0,-159.0,-30.0,-847.0,-19.0,209.0,103.0
80.0,-165.0,-283.0,-53.0,-1442.0,-90.0,343.0,666.0
908.0,-247.0,-274.0,-44.0,-1817.0,237.0,759.0,935.0
908.0,-100.0,-424.0,-99.0,-2406.0,793.0,1019.0,1248.0
1298.0,-28.0,-932.0,-73.0,-3127.0,902.0,1379.0,1346.0
3957.0,20.0,-746.0,-97.0,-3628.0,563.0,1164.0,1207.0
4000.0,184.0,63.0,-121.0,-3327.0,303.0,628.0,992.0
4000.0,410.0,19.0,-97.0,-3327.0,-521.0,229.0,751.0
4000.0,476.0,349.0,-72.0,-3982.0,-1263.0,-167.0,385.0
1559.0,441.0,801.0,-26.0,-4000.0,-1200.0,-188.0,4.0
-3034.0,144.0,-42.0,3.0,-4000.0,-859.0,-598.0,-214.0
-4000.0,-258.0,-159.0,-2.0,-4000.0,-480.0,-1586.0,-514.0
-4000.0,-232.0,439.0,-38.0,-4000.0,114.0,-2080.0,-750.0
-4000.0,-215.0,520.0,-88.0,-4000.0,486.0,-1952.0,-738.0
-3217.0,-162.0,621.0,-87.0,-4000.0,486.0,-1673.0,-594.0
-1918.0,-162.0,230.0,-86.0,-4000.0,896.0,-1735.0,-356.0
-850.0,-272.0,-115.0,-69.0,-4000.0,1710.0,-1884.0,-33.0
-1723.0,-155.0,125.0,-13.0,-4000.0,2373.0,-1767.0,465.0
-2308.0,79.0,-450.0,-9.0,-4000.0,2809.0,-1702.0,742.0
-90.0,70.0,-694.0,11.0,-4000.0,2550.0,-1185.0,1012.0
3559.0,-183.0,199.0,6.0,-4000.0,248.0,-228.0,1533.0
4000.0,-258.0,980.0,-10.0,-4000.0,-2595.0,149.0,1724.0
4000.0,-375.0,1119.0,55.0,-3655.0,-4000.0,492.0,1848.0
4000.0,-410.0,644.0,85.0,-3302.0,-4000.0,881.0,2029.0
1110.0,-272.0,-499.0,65.0,-2953.0,-4000.0,1280.0,1960.0
-1685.0,-45.0,-2463.0,81.0,-2777.0,-4000.0,1874.0,1986.0
357.0,176.0,-2373.0,99.0,-2866.0,-4000.0,2255.0,2118.0
2389.0,90.0,-139.0,59.0,-3213.0,-3984.0,2426.0,2283.0
4000.0,-346.0,980.0,41.0,-3628.0,-3975.0,2377.0,2563.0
4000.0,309.0,2030.0,1.0,-3988.0,-3514.0,2449.0,2770.0
3182.0,2354.0,2054.0,30.0,-4000.0,-3258.0,2696.0,2807.0
-4000.0,2168.0,1509.0,99.0,-4000.0,-2788.0,2681.0,2442.0
-4000.0,1580.0,1098.0,25.0,-4000.0,-2493.0,2232.0,2051.0
-4000.0,927.0,439.0,-92.0,-4000.0,-2144.0,2101.0,1763.0
-4000.0,-1466.0,-22.0,-214.0,-4000.0,-1651.0,1915.0,890.0
-4000.0,-1684.0,-688.0,-285.0,-4000.0,-1005.0,824.0,603.0
-4000.0,-1767.0,-997.0,-225.0,-4000.0,-375.0,394.0,961.0
-4000.0,-1851.0,-1492.0,-187.0,-4000.0,57.0,206.0,164.0
-2748.0,-1090.0,-814.0,-162.0,-4000.0,497.0,-676.0,-953.0
-2179.0,-566.0,172.0,-137.0,-2483.0,693.0,-1368.0,-1191.0
-1476.0,217.0,206.0,-182.0,-21.0,1077.0,-1587.0,-1123.0
1671.0,663.0,50.0,-198.0,3266.0,1344.0,-1884.0,-1143.0
4000.0,1063.0,-73.0,-147.0,4000.0,766.0,-1997.0,-870.0
4000.0,1097.0,250.0,-63.0,4000.0,-419.0,-1952.0,-1607.0
3635.0,1908.0,118.0,5.0,4000.0,-526.0,-2237.0,-2759.0
3236.0,2168.0,118.0,26.0,4000.0,-310.0,-2288.0,-2165.0
3432.0,1648.0,1.0,-8.0,4000.0,-836.0,-1728.0,-1135.0
2146.0,1713.0,-212.0,11.0,4000.0,113.0,-861.0,-627.0
1169.0,1908.0,-273.0,8.0,4000.0,2694.0,-306.0,-590.0
1108.0,737.0,-434.0,-11.0,4000.0,3539.0,923.0,-258.0
1237.0,-1916.0,-580.0,42.0,4000.0,1539.0,1540.0,-344.0
3827.0,-2951.0,-490.0,101.0,4000.0,1657.0,1532.0,-2071.0
4000.0,-3331.0,-198.0,141.0,4000.0,2502.0,368.0,-3321.0
4000.0,-3142.0,-209.0,179.0,4000.0,2385.0,-3444.0,-2682.0
4000.0,-3213.0,10.0,191.0,4000.0,2617.0,-4000.0,-1176.0
4000.0,-3770.0,37.0,167.0,4000.0,2629.0,-4000.0,751.0
4000.0,-3460.0,163.0,142.0,3428.0,3491.0,-4000.0,1177.0
4000.0,-1090.0,134.0,101.0,2176.0,3361.0,-4000.0,992.0
-1560.0,1712.0,-20.0,55.0,1474.0,3409.0,-4000.0,3031.0
-4000.0,3079.0,-41.0,5.0,804.0,2320.0,-4000.0,4000.0
-4000.0,2949.0,-187.0,-71.0,-90.0,1474.0,-2869.0,4000.0
-4000.0,77.0,-131.0,-90.0,-883.0,1669.0,-817.0,4000.0
-4000.0,-1181.0,-132.0,-72.0,-1717.0,-92.0,339.0,4000.0
-4000.0,-2062.0,-83.0,-74.0,-2887.0,-743.0,-226.0,4000.0
-3034.0,-2904.0,-91.0,-55.0,-4000.0,-678.0,-802.0,4000.0
-12.0,-2501.0,-36.0,-50.0,-4000.0,-48.0,297.0,4000.0
1763.0,-1968.0,60.0,-50.0,-4000.0,537.0,921.0,4000.0
4000.0,-735.0,89.0,-66.0,-4000.0,404.0,1064.0,4000.0
4000.0,-438.0,42.0,-16.0,-4000.0,866.0,595.0,4000.0
-2010.0,1193.0,4.0,25.0,-4000.0,1352.0,7.0,4000.0
-3413.0,3583.0,28.0,37.0,-4000.0,1898.0,206.0,4000.0
-4000.0,4000.0,-38.0,26.0,-4000.0,1919.0,962.0,4000.0
-4000.0,4000.0,-7.0,-55.0,-4000.0,1601.0,1705.0,4000.0
-2721.0,4000.0,-12.0,-100.0,-4000.0,1026.0,1259.0,4000.0
-1339.0,3879.0,-21.0,-109.0,-4000.0,681.0,860.0,3831.0
627.0,1120.0,15.0,-36.0,-4000.0,641.0,1084.0,2544.0
888.0,-1466.0,-7.0,-6.0,-4000.0,619.0,1667.0,1372.0
202.0,-2135.0,-41.0,-36.0,-4000.0,522.0,1874.0,356.0
608.0,-2680.0,-38.0,-34.0,-4000.0,486.0,1670.0,-1065.0
4000.0,-2157.0,-8.0,-44.0,-4000.0,866.0,1788.0,-2415.0
4000.0,-720.0,23.0,-16.0,-4000.0,1018.0,1580.0,-3708.0
4000.0,-1267.0,-17.0,-6.0,-4000.0,628.0,1280.0,-4000.0
4000.0,-681.0,-255.0,11.0,-4000.0,10.0,1341.0,-4000.0
4000.0,839.0,-438.0,16.0,-4000.0,-474.0,1353.0,-4000.0
3884.0,4000.0,-114.0,-4.0,-4000.0,-405.0,1205.0,-4000.0
2080.0,4000.0,246.0,-10.0,-4000.0,-145.0,1202.0,-4000.0
1384.0,4000.0,325.0,-38.0,-4000.0,-237.0,1280.0,-4000.0
2418.0,4000.0,337.0,-60.0,-4000.0,-331.0,1353.0,-4000.0
3650.0,4000.0,170.0,-92.0,-4000.0,-1047.0,1454.0,-4000.0
-77.0,992.0,111.0,-95.0,-4000.0,-1607.0,1483.0,-4000.0
-3424.0,-4000.0,79.0,-40.0,-4000.0,-1715.0,1592.0,-4000.0
-4000.0,-4000.0,49.0,-17.0,-4000.0,-1701.0,1548.0,-4000.0
-4000.0,-4000.0,98.0,-7.0,-4000.0,-1811.0,1548.0,-4000.0
-4000.0,-4000.0,93.0,-1.0,-3510.0,-2315.0,1483.0,-4000.0
-4000.0,-4000.0,75.0,-16.0,-3054.0,-2228.0,1418.0,-4000.0
-2593.0,-2423.0,60.0,12.0,-2715.0,-2026.0,1410.0,-4000.0
